time,voltage,curr_density,SOC,SOC_est,temp
0,3.91736035627036,-29.5,76,65.33056,311
0.5,3.91700376635328,-29.5,75.9859830640347,65.318774420071,311.003737331299
1,3.91667621495028,-29.5,75.9719661280694,65.306988840142,311.007331374155
1.5,3.91636583648854,-29.5,75.9579491921041,65.295203260213,311.010954002028
2,3.91606850562135,-29.5,75.9439322561388,65.283417680284,311.014601806034
2.5,3.91578234155491,-29.5,75.9299153201735,65.271632100355,311.018273739367
3,3.91550436779408,-29.5,75.9158983842082,65.2598465204261,311.021965000572
3.5,3.91523400498631,-29.5,75.9018814482428,65.2480609404971,311.025675540135
4,3.91497085357336,-29.5,75.8878645122775,65.2362753605681,311.029405605399
4.5,3.91471325180781,-29.5,75.8738475763122,65.2244897806391,311.033151606643
5,3.91446065530893,-29.5,75.8598306403469,65.2127042007101,311.036912648748
5.5,3.9142142735853,-29.5,75.8458137043816,65.2009186207811,311.040693365662
6,3.91397081436406,-29.5,75.8317967684163,65.1891330408521,311.044483830584
6.5,3.91373078633418,-29.5,75.817779832451,65.1773474609231,311.048285750708
7,3.9134958350028,-29.5,75.8037628964857,65.1655618809941,311.052105506149
7.5,3.91326320793724,-29.5,75.7897459605204,65.1537763010651,311.055933733352
8,3.91303357309873,-29.5,75.7757290245551,65.1419907211362,311.059772958006
8.5,3.91280766188548,-29.5,75.7617120885898,65.1302051412072,311.063626415769
9,3.91258364805333,-29.5,75.7476951526244,65.1184195612782,311.06748729294
9.5,3.91236231511059,-29.5,75.7336782166591,65.1066339813492,311.071358773969
10,3.91214378322978,-29.5,75.7196612806938,65.0948484014202,311.07524166883
10.5,3.91192683487836,-29.5,75.7056443447285,65.0830628214912,311.079131109992
11,3.911712322646,-29.5,75.6916274087632,65.0712772415622,311.083030757716
11.5,3.91149994558811,-29.5,75.6776104727979,65.0594916616332,311.086939581593
12,3.91128891310658,-29.5,75.6635935368326,65.0477060817042,311.090854229085
12.5,3.91108012062703,-29.5,75.6495766008673,65.0359205017752,311.094778705006
13,3.91087297142122,-29.5,75.635559664902,65.0241349218462,311.098710519918
13.5,3.91066710675276,-29.5,75.6215427289367,65.0123493419172,311.102648113009
14,3.91046428831786,-29.5,75.6075257929714,65.0005637619883,311.106599629464
14.5,3.91026146988295,-29.5,75.5935088570061,64.9887781820593,311.110551145919
15,3.91005884248791,-29.5,75.5794919210408,64.9769926021303,311.114503558144
15.5,3.90986010575581,-29.5,75.5654749850755,64.9652070222013,311.118474213371
16,3.9096613690237,-29.5,75.5514580491102,64.9534214422723,311.122444868598
16.5,3.9094626322916,-29.5,75.5374411131448,64.9416358623433,311.126415523826
17,3.90926739898372,-29.5,75.5234241771795,64.9298502824143,311.130403045251
17.5,3.90907224161471,-29.5,75.5094072412142,64.9180647024853,311.134390932262
18,3.90887708424571,-29.5,75.4953903052489,64.9062791225563,311.138378819272
18.5,3.90868481692627,-29.5,75.4813733692836,64.8944935426273,311.14238088499
19,3.90849283276993,-29.5,75.4673564333183,64.8827079626983,311.146384339917
19.5,3.90830084861359,-29.5,75.453339497353,64.8709223827694,311.150387794844
20,3.90811125724968,-29.5,75.4393225613877,64.8591368028404,311.154403129513
20.5,3.90792211237795,-29.5,75.4253056254223,64.8473512229114,311.158420680927
21,3.90773296750622,-29.5,75.411288689457,64.8355656429824,311.162438232341
21.5,3.90754580692959,-29.5,75.3972717534917,64.8237800630534,311.166465707515
22,3.90735922334708,-29.5,75.3832548175264,64.8119944831244,311.170496068323
22.5,3.90717263976457,-29.5,75.3692378815611,64.8002089031954,311.17452642913
23,3.90698770123571,-29.5,75.3552209455958,64.7884233232664,311.178565054068
23.5,3.90680344543168,-29.5,75.3412040096305,64.7766377433374,311.182607108758
24,3.90661918962765,-29.5,75.3271870736652,64.7648521634084,311.186649163448
24.5,3.90643629493226,-29.5,75.3131701376998,64.7530665834794,311.190698061863
25,3.90625417023692,-29.5,75.2991532017345,64.7412810035504,311.194750831879
25.5,3.90607204554159,-29.5,75.2851362657692,64.7294954236214,311.198803601894
26,3.90589104183658,-29.5,75.2711193298039,64.7177098436924,311.202861990528
26.5,3.90571088149579,-29.5,75.2571023938386,64.7059242637634,311.206924606264
27,3.905530721155,-29.5,75.2430854578733,64.6941386838345,311.210987222001
27.5,3.90535147665688,-29.5,75.229068521908,64.6823531039055,311.215054381717
28,3.90517313835818,-29.5,75.2150515859427,64.6705675239765,311.219126037568
28.5,3.90499480005948,-29.5,75.2010346499774,64.6587819440475,311.223197693419
29,3.90481754772589,-29.5,75.1870177140121,64.6469963641185,311.227274650374
29.5,3.9046417080437,-29.5,75.1730007780468,64.6352107841895,311.231358503142
30,3.90446586836151,-29.5,75.1589838420815,64.6234252042605,311.23544235591
30.5,3.90429002867931,-29.5,75.1449669061161,64.6116396243315,311.239526208679
31,3.90411418899712,-29.5,75.1309499701509,64.5998540444025,311.243610061447
31.5,3.90393834931493,-29.5,75.1169330341855,64.5880684644735,311.247693914215
32,3.90376340976379,-29.5,75.1029160982202,64.5762828845445,311.251782002798
32.5,3.90359058471595,-29.5,75.0888991622549,64.5644973046155,311.25588004176
33,3.90341775966811,-29.5,75.0748822262896,64.5527117246866,311.259978080723
33.5,3.90324493462027,-29.5,75.0608652903243,64.5409261447576,311.264076119685
34,3.90307210957243,-29.5,75.046848354359,64.5291405648286,311.268174158647
34.5,3.90289928452458,-29.5,75.0328314183937,64.5173549848996,311.27227219761
35,3.90272690097655,-29.5,75.0188144824284,64.5055694049706,311.276372200736
35.5,3.90255679205293,-29.5,75.0047975464631,64.4937838250416,311.280482323311
36,3.90238668312931,-29.5,74.9907806104978,64.4819982451126,311.284592445886
36.5,3.90221657420569,-29.5,74.9767636745324,64.4702126651836,311.288702568462
37,3.90204646528207,-29.5,74.9627467385671,64.4584270852546,311.292812691037
37.5,3.90187635635845,-29.5,74.9487298026018,64.4466415053256,311.296922813612
38,3.90170631339753,-29.5,74.9347128666365,64.4348559253966,311.301033209116
38.5,3.90153869285316,-29.5,74.9206959306712,64.4230703454677,311.305153627638
39,3.90137107230879,-29.5,74.9066789947059,64.4112847655387,311.30927404616
39.5,3.90120345176441,-29.5,74.8926620587406,64.3994991856097,311.313394464682
40,3.90103583122004,-29.5,74.8786451227753,64.3877136056807,311.317514883204
40.5,3.90086821067567,-29.5,74.86462818681,64.3759280257517,311.321635301726
41,3.90070059013129,-29.5,74.8506112508447,64.3641424458227,311.325755720248
41.5,3.90053502820185,-29.5,74.8365943148793,64.3523568658937,311.329883903011
42,3.90036971949,-29.5,74.822577378914,64.3405712859647,311.334013040806
42.5,3.90020441077816,-29.5,74.8085604429487,64.3287857060357,311.3381421786
43,3.90003910206632,-29.5,74.7945435069834,64.3170001261067,311.342271316395
43.5,3.89987379335447,-29.5,74.7805265710181,64.3052145461778,311.34640045419
44,3.89970848464263,-29.5,74.7665096350528,64.2934289662488,311.350529591985
44.5,3.89954481508252,-29.5,74.7524926990875,64.2816433863198,311.354664214089
45,3.89938167907446,-29.5,74.7384757631222,64.2698578063908,311.358800621363
45.5,3.89921854306639,-29.5,74.7244588271569,64.2580722264618,311.362937028636
46,3.89905540705832,-29.5,74.7104418911916,64.2462866465328,311.36707343591
46.5,3.89889227105026,-29.5,74.6964249552262,64.2345010666038,311.371209843184
47,3.89872913504219,-29.5,74.6824080192609,64.2227154866748,311.375346250457
47.5,3.89856680468911,-29.5,74.6683910832956,64.2109299067458,311.379485064773
48,3.89840503556376,-29.5,74.6543741473303,64.1991443268168,311.383625538576
48.5,3.89824396151924,-29.5,74.640357211365,64.1873587468878,311.387767901527
49,3.89808288747471,-29.5,74.6263402753997,64.1755731669588,311.391910264479
49.5,3.89792182263993,-29.5,74.6123233394344,64.1637875870298,311.396052651329
50,3.95755250551898,11.6915545345509,74.5983194514865,64.1520129780044,311.400192878817
50.5,3.962341796906,14.75,74.6053246488332,64.1579030179854,311.398008627154
51,3.96265345485728,14.75,74.6123331168158,64.1637958079499,311.396111787702
51.5,3.96294190331906,14.75,74.6193415847985,64.1696885979144,311.394218768304
52,3.96321234246087,14.75,74.6263500527811,64.1755813878789,311.392331757128
52.5,3.96346899471213,14.75,74.6333585207638,64.1814741778434,311.390451615456
53,3.96371381435531,14.75,74.6403669887464,64.1873669678079,311.388579311349
53.5,3.96394798994568,14.75,74.6473754567291,64.1932597577724,311.386715802105
54,3.96417384809353,14.75,74.6543839247118,64.1991525477369,311.38486058449
54.5,3.9643911742105,14.75,74.6613923926944,64.2050453377014,311.383015327352
55,3.96460078256464,14.75,74.6684008606771,64.2109381276659,311.381180707242
55.5,3.9648059718605,14.75,74.6754093286597,64.2168309176304,311.379352894459
56,3.96500542077388,14.75,74.6824177966424,64.2227237075949,311.377534565575
56.5,3.96519865761617,14.75,74.689426264625,64.2286164975594,311.375727898344
57,3.9653874132576,14.75,74.6964347326077,64.2345092875239,311.373930656182
57.5,3.9655721582732,14.75,74.7034432005903,64.2404020774884,311.372142483431
58,3.96575315751975,14.75,74.710451668573,64.2462948674528,311.370363367678
58.5,3.9659306552532,14.75,74.7174601365556,64.2521876574174,311.368593291961
59,3.96610410606164,14.75,74.7244686045383,64.2580804473818,311.366834597522
59.5,3.96627444811842,14.75,74.7314770725209,64.2639732373463,311.365085396239
60,3.96644256738895,14.75,74.7384855405036,64.2698660273108,311.363343269328
60.5,3.92368531919155,-14.75,74.7314854826825,64.2639803086943,311.364403404823
61,3.92352695102769,-14.75,74.7244770146999,64.2580875187298,311.365302576903
61.5,3.92338245255732,-14.75,74.7174685467172,64.2521947287653,311.366211091594
62,3.92324861144399,-14.75,74.7104600787346,64.2463019388008,311.36712800519
62.5,3.9231231216343,-14.75,74.7034516107519,64.2404091488363,311.368052337503
63,3.92300403241473,-14.75,74.6964431427693,64.2345163588718,311.368982880462
63.5,3.92289063606322,-14.75,74.6894346747866,64.2286235689073,311.369919336102
64,3.92278180872426,-14.75,74.682426206804,64.2227307789428,311.370860835414
64.5,3.92267690188343,-14.75,74.6754177388213,64.2168379889783,311.371806885202
65,3.92257540805752,-14.75,74.6684092708387,64.2109451990138,311.372757048787
65.5,3.92247690932985,-14.75,74.661400802856,64.2050524090493,311.373710953931
66,3.92238127554521,-14.75,74.6543923348734,64.1991596190849,311.374668546975
66.5,3.92228807767429,-14.75,74.6473838668907,64.1932668291204,311.375629318531
67,3.92219699178059,-14.75,74.640375398908,64.1873740391558,311.376592902424
67.5,3.92210818897425,-14.75,74.6333669309253,64.1814812491913,311.377559574978
68,3.92202052432133,-14.75,74.6263584629427,64.1755884592268,311.378527795646
68.5,3.92193499115772,-14.75,74.61934999496,64.1696956692624,311.379498927919
69,3.92185018117954,-14.75,74.6123415269774,64.1638028792979,311.380471047465
69.5,3.92176754648219,-14.75,74.6053330589947,64.1579100893334,311.381446129667
70,3.92168559601825,-14.75,74.5983245910121,64.1520172993689,311.382422131014
70.5,3.92160497559374,-14.75,74.5913161230294,64.1461245094044,311.38339991903
71,3.92152543838491,-14.75,74.5843076550468,64.1402317194399,311.384379121791
71.5,3.92144657684439,-14.75,74.5772991870641,64.1343389294754,311.385359207015
72,3.92136909353937,-14.75,74.5702907190815,64.1284461395109,311.386341026931
72.5,3.9212920068643,-14.75,74.5632822510988,64.1225533495464,311.387323333676
73,3.9212160567341,-14.75,74.5562737831161,64.1166605595819,311.388307009663
73.5,3.92114064658933,-14.75,74.5492653151335,64.1107677696174,311.389291289159
74,3.92106591171651,-14.75,74.5422568471509,64.1048749796529,311.390276323363
74.5,3.92099231232109,-14.75,74.5352483791682,64.0989821896884,311.391262506969
75,3.92091915340628,-14.75,74.5282399111856,64.0930893997239,311.392249136455
75.5,3.92084599449147,-14.75,74.5212314432029,64.0871966097594,311.393235765942
76,3.92077331770242,-14.75,74.5142229752202,64.0813038197949,311.394222780369
76.5,3.92070192596383,-14.75,74.5072145072376,64.0754110298304,311.39521082081
77,3.92063053422523,-14.75,74.5002060392549,64.0695182398659,311.396198861251
77.5,3.92055914248664,-14.75,74.4931975712723,64.0636254499015,311.397186901692
78,3.92048894885948,-14.75,74.4861891032896,64.0577326599369,311.398175545963
78.5,3.92041900912093,-14.75,74.479180635307,64.0518398699725,311.39916431819
79,3.92034906938237,-14.75,74.4721721673243,64.0459470800079,311.400153090417
79.5,3.92027958691808,-14.75,74.4651636993417,64.0400542900435,311.401141949408
80,3.92021085860316,-14.75,74.458155231359,64.034161500079,311.402130951492
80.5,3.92014213028824,-14.75,74.4511467633763,64.0282687101145,311.403119953577
81,3.92007340197331,-14.75,74.4441382953937,64.02237592015,311.404108955662
81.5,3.92000562710468,-14.75,74.437129827411,64.0164831301855,311.405097771502
82,3.91993792423081,-14.75,74.4301213594284,64.010590340221,311.40608657328
82.5,3.91987022135695,-14.75,74.4231128914457,64.0046975502565,311.407075375058
83,3.91980294206989,-14.75,74.4161044234631,63.998804760292,311.408063907331
83.5,3.91973611779846,-14.75,74.4090959554804,63.9929119703275,311.409052150105
84,3.91966929352702,-14.75,74.4020874874978,63.987019180363,311.410040392878
84.5,3.9196024954418,-14.75,74.3950790195151,63.9811263903985,311.411028605425
85,3.91953643157458,-14.75,74.3880705515325,63.975233600434,311.412015970475
85.5,3.91947036770737,-14.75,74.3810620835498,63.9693408104695,311.413003335525
86,3.91940430384015,-14.75,74.3740536155671,63.963448020505,311.413990700575
86.5,3.91933863030948,-14.75,74.3670451475845,63.9575552305405,311.414977400314
87,3.91927323168267,-14.75,74.3600366796018,63.951662440576,311.415963631493
87.5,3.91920783305586,-14.75,74.3530282116192,63.9457696506115,311.416949862671
88,3.91914251632356,-14.75,74.3460197436365,63.939876860647,311.417935907168
88.5,3.91907770651415,-14.75,74.3390112756539,63.9339840706825,311.418920796111
89,3.91901289670474,-14.75,74.3320028076712,63.928091280718,311.419905685053
89.5,3.91894808689533,-14.75,74.3249943396886,63.9221984907535,311.420890573996
90,3.91888380641939,-14.75,74.3179858717059,63.916305700789,311.421873845193
90.5,3.91881976219998,-14.75,74.3109774037233,63.9104129108245,311.422856394344
91,3.91875571798056,-14.75,74.3039689357406,63.90452012086,311.423838943495
91.5,3.91869167376115,-14.75,74.2969604677579,63.8986273308956,311.424821492645
92,3.91862762954173,-14.75,74.2899519997753,63.8927345409311,311.425804041796
92.5,3.91856358532231,-14.75,74.2829435317926,63.8868417509666,311.426786590947
93,3.9184995411029,-14.75,74.27593506381,63.8809489610021,311.427769140098
93.5,3.91843619225786,-14.75,74.2689265958273,63.8750561710376,311.428748846253
94,3.91837302156753,-14.75,74.2619181278447,63.8691633810731,311.429727824033
94.5,3.9183098508772,-14.75,74.254909659862,63.8632705911086,311.430706801814
95,3.91824668018687,-14.75,74.2479011918794,63.8573778011441,311.431685779594
95.5,3.91818350949655,-14.75,74.2408927238967,63.8514850111796,311.432664757374
96,3.91812033880622,-14.75,74.2338842559141,63.8455922212151,311.433643735155
96.5,3.91805716811589,-14.75,74.2268757879314,63.8396994312506,311.434622712935
97,3.91799466761988,-14.75,74.2198673199488,63.8338066412861,311.435598104087
97.5,3.91793224101317,-14.75,74.2128588519661,63.8279138513216,311.43657309981
98,3.91786981440647,-14.75,74.2058503839834,63.8220210613571,311.437548095534
98.5,3.91780738779976,-14.75,74.1988419160008,63.8161282713926,311.438523091258
99,3.91774496119305,-14.75,74.1918334480181,63.8102354814281,311.439498086981
99.5,3.91768253458635,-14.75,74.1848249800355,63.8043426914636,311.440473082705
100,3.91762011147378,-14.75,74.1778165120528,63.7984499014991,311.44144805551
100.5,3.91755833878483,-14.75,74.1708080440702,63.7925571115346,311.442418761982
101,3.91749656609587,-14.75,74.1637995760875,63.7866643215701,311.443389468454
101.5,3.91743479340692,-14.75,74.1567911081049,63.7807715316056,311.444360174927
102,3.91737302071797,-14.75,74.1497826401222,63.7748787416412,311.445330881399
102.5,3.91731124802901,-14.75,74.1427741721396,63.7689859516767,311.446301587871
103,3.91724947534006,-14.75,74.1357657041569,63.7630931617122,311.447272294344
103.5,3.91718776771676,-14.75,74.1287572361743,63.7572003717477,311.448242502134
104,3.91712658659177,-14.75,74.1217487681916,63.7513075817832,311.449208674685
104.5,3.91706540546679,-14.75,74.1147403002089,63.7454147918187,311.450174847236
105,3.91700422434181,-14.75,74.1077318322263,63.7395220018542,311.451141019788
105.5,3.91694304321683,-14.75,74.1007233642436,63.7336292118897,311.452107192339
106,3.91688186209184,-14.75,74.093714896261,63.7277364219252,311.45307336489
106.5,3.91682068096686,-14.75,74.0867064282783,63.7218436319607,311.454039537442
107,3.91675961719173,-14.75,74.0796979602956,63.7159508419962,311.455004688747
107.5,3.91669898280812,-14.75,74.072689492313,63.7100580520317,311.455966103237
108,3.91663834842452,-14.75,74.0656810243303,63.7041652620672,311.456927517728
108.5,3.91657771404091,-14.75,74.0586725563477,63.6982724721027,311.457888932218
109,3.91651707965731,-14.75,74.051664088365,63.6923796821382,311.458850346708
109.5,3.9164564452737,-14.75,74.0446556203824,63.6864868921737,311.459811761199
110,3.9163958108901,-14.75,74.0376471523997,63.6805941022092,311.460773175689
110.5,3.91633533997276,-14.75,74.0306386844171,63.6747013122447,311.461733010359
111,3.91627521757186,-14.75,74.0236302164344,63.6688085222802,311.462689476789
111.5,3.91621509517096,-14.75,74.0166217484518,63.6629157323157,311.463645943218
112,3.91615497277006,-14.75,74.0096132804691,63.6570229423512,311.464602409648
112.5,3.91609485036916,-14.75,74.0026048124865,63.6511301523867,311.465558876078
113,3.91603472796826,-14.75,73.9955963445038,63.6452373624223,311.466515342508
113.5,3.91597460556736,-14.75,73.9885878765212,63.6393445724578,311.467471808938
114,3.91591468845879,-14.75,73.9815794085385,63.6334517824933,311.468426120465
114.5,3.9158550503217,-14.75,73.9745709405558,63.6275589925287,311.469377503699
115,3.91579541218461,-14.75,73.9675624725732,63.6216662025643,311.470328886933
115.5,3.91573577404751,-14.75,73.9605540045905,63.6157734125998,311.471280270166
116,3.91567613591042,-14.75,73.9535455366079,63.6098806226353,311.4722316534
116.5,3.91561649777333,-14.75,73.9465370686252,63.6039878326708,311.473183036634
117,3.91555685963623,-14.75,73.9395286006425,63.5980950427063,311.474134419867
117.5,3.91549746584353,-14.75,73.9325201326599,63.5922022527418,311.475083057965
118,3.9154382899787,-14.75,73.9255116646772,63.5863094627773,311.476029247709
118.5,3.91537911411387,-14.75,73.9185031966946,63.5804166728128,311.476975437452
119,3.91531993824903,-14.75,73.9114947287119,63.5745238828483,311.477921627196
119.5,3.9152607623842,-14.75,73.9044862607293,63.5686310928838,311.478867816939
120,3.91520158651937,-14.75,73.8974777927466,63.5627383029193,311.479814006683
120.5,3.91514241065454,-14.75,73.890469324764,63.5568455129548,311.480760196426
121,3.91508351617103,-14.75,73.8834608567813,63.5509527229903,311.481703037014
121.5,3.91502478467323,-14.75,73.8764523887987,63.5450599330258,311.482643937656
122,3.91496605317542,-14.75,73.869443920816,63.5391671430613,311.483584838299
122.5,3.91490732167762,-14.75,73.8624354528334,63.5332743530968,311.484525738941
123,3.91484859017981,-14.75,73.8554269848507,63.5273815631323,311.485466639583
123.5,3.91478985868201,-14.75,73.8484185168681,63.5214887731678,311.486407540226
124,3.9147311271842,-14.75,73.8414100488854,63.5155959832033,311.487348440868
124.5,3.9146727121126,-14.75,73.8344015809027,63.5097031932388,311.488285351028
125,3.91461440945554,-14.75,73.8273931129201,63.5038104032743,311.489220843518
125.5,3.91455610679848,-14.75,73.8203846449374,63.4979176133099,311.490156336008
126,3.91449780414143,-14.75,73.8133761769548,63.4920248233453,311.491091828497
126.5,3.91443950148437,-14.75,73.8063677089721,63.4861320333809,311.492027320987
127,3.91438119882732,-14.75,73.7993592409895,63.4802392434164,311.492962813476
