time,voltage,curr_density,SOC,SOC_est,temp
0,3.77121181578405,-29.5,49,42.62869,292
0.5,3.77085255460244,-29.5,48.9859830640347,42.616904420071,292.005446195014
1,3.77052548859945,-29.5,48.9719661280694,42.605118840142,292.010659388438
1.5,3.77021657082198,-29.5,48.9579491921041,42.593333260213,292.015902749951
2,3.76992206140989,-29.5,48.9439322561388,42.581547680284,292.021173027965
2.5,3.7696392875556,-29.5,48.9299153201734,42.569762100355,292.026466953226
3,3.76936604201314,-29.5,48.9158983842081,42.5579765204261,292.031781091175
3.5,3.76910223540415,-29.5,48.9018814482428,42.5461909404971,292.037116269303
4,3.7688455224293,-29.5,48.8878645122775,42.5344053605681,292.042467844854
4.5,3.76859701038229,-29.5,48.8738475763122,42.5226197806391,292.047839006399
5,3.76835298969405,-29.5,48.8598306403469,42.5108342007101,292.053221120625
5.5,3.76811546449621,-29.5,48.8458137043816,42.4990486207811,292.058619303466
6,3.76788331757589,-29.5,48.8317967684163,42.4872630408521,292.064031001864
6.5,3.76765546614031,-29.5,48.817779832451,42.4754774609231,292.069453583101
7,3.76743165359028,-29.5,48.8037628964857,42.4636918809941,292.074886437616
7.5,3.76721176788361,-29.5,48.7897459605204,42.4519063010651,292.080329301461
8,3.76699657724589,-29.5,48.775729024555,42.4401207211361,292.085784087145
8.5,3.76678455910367,-29.5,48.7617120885897,42.4283351412071,292.091246867301
9,3.76657556065093,-29.5,48.7476951526244,42.4165495612782,292.096717198332
9.5,3.76636943574875,-29.5,48.7336782166591,42.4047639813492,292.102194649968
10,3.76616661959979,-29.5,48.7196612806938,42.3929784014202,292.107680175447
10.5,3.76596671887391,-29.5,48.7056443447285,42.3811928214912,292.113172656396
11,3.76577001844302,-29.5,48.6916274087632,42.3694072415622,292.118672518809
11.5,3.76557545748253,-29.5,48.6776104727979,42.3576216616332,292.124177278867
12,3.76538089652203,-29.5,48.6635935368326,42.3458360817042,292.129682038924
12.5,3.76519192252312,-29.5,48.6495766008673,42.3340505017752,292.135198789686
13,3.76500305003831,-29.5,48.635559664902,42.3222649218462,292.140715758317
13.5,3.76481625030891,-29.5,48.6215427289367,42.3104793419172,292.146236742752
14,3.76463239414458,-29.5,48.6075257929713,42.2986937619882,292.151763430117
14.5,3.76444853798026,-29.5,48.593508857006,42.2869081820592,292.157290117483
15,3.764268447617,-29.5,48.5794919210407,42.2751226021303,292.162823168999
15.5,3.76408905197961,-29.5,48.5654749850754,42.2633370222013,292.168357394592
16,3.76391075612604,-29.5,48.5514580491101,42.2515514422723,292.173893171765
16.5,3.76373535537078,-29.5,48.5374411131448,42.2397658623433,292.179433033355
17,3.76355995461553,-29.5,48.5234241771795,42.2279802824143,292.184972894946
17.5,3.76338709682737,-29.5,48.5094072412142,42.2161947024853,292.190515541566
18,3.76321529624357,-29.5,48.4953903052489,42.2044091225563,292.196059346024
18.5,3.76304394356356,-29.5,48.4813733692836,42.1926235426273,292.201603484385
19,3.76287540297433,-29.5,48.4673564333183,42.1808379626983,292.207149719095
19.5,3.76270686238511,-29.5,48.453339497353,42.1690523827693,292.212695953805
20,3.76254000711427,-29.5,48.4393225613876,42.1572668028403,292.218242803731
20.5,3.76237443132803,-29.5,48.4253056254223,42.1454812229114,292.223790120727
21,3.76220885554179,-29.5,48.411288689457,42.1336956429824,292.229337437723
21.5,3.76204598590837,-29.5,48.3972717534917,42.1219100630534,292.23488463833
22,3.76188311765613,-29.5,48.3832548175264,42.1101244831244,292.240431838877
22.5,3.76172131812121,-29.5,48.3692378815611,42.0983389031954,292.245978532775
23,3.76156093215355,-29.5,48.3552209455958,42.0865533232664,292.251524556538
23.5,3.76140054618588,-29.5,48.3412040096305,42.0747677433374,292.257070580301
24,3.76124212753193,-29.5,48.3271870736652,42.0629821634084,292.262614754089
24.5,3.76108402492818,-29.5,48.3131701376999,42.0511965834794,292.268158630676
25,3.76092682441655,-29.5,48.2991532017345,42.0394110035504,292.273701077892
25.5,3.76077180448011,-29.5,48.2851362657692,42.0276254236214,292.279240069973
26,3.76061678454366,-29.5,48.2711193298039,42.0158398436924,292.284779062054
26.5,3.76046176460721,-29.5,48.2571023938386,42.0040542637635,292.290318054135
27,3.76030674467077,-29.5,48.2430854578733,41.9922686838345,292.295857046217
27.5,3.76015228559362,-29.5,48.229068521908,41.9804831039055,292.301394647651
28,3.76000089043066,-29.5,48.2150515859427,41.9686975239765,292.306924652133
28.5,3.7598494952677,-29.5,48.2010346499774,41.9569119440475,292.312454656616
29,3.75969810010474,-29.5,48.1870177140121,41.9451263641185,292.317984661098
29.5,3.75954670494178,-29.5,48.1730007780468,41.9333407841895,292.32351466558
30,3.75939536263608,-29.5,48.1589838420815,41.9215552042605,292.329044478292
30.5,3.75924710900476,-29.5,48.1449669061161,41.9097696243315,292.334563085051
31,3.75909885537344,-29.5,48.1309499701508,41.8979840444025,292.34008169181
31.5,3.75895060174212,-29.5,48.1169330341855,41.8861984644735,292.345600298569
32,3.75880234811081,-29.5,48.1029160982202,41.8744128845446,292.351118905329
32.5,3.75865409447949,-29.5,48.0888991622549,41.8626273046156,292.356637512088
33,3.75850825762001,-29.5,48.0748822262896,41.8508417246866,292.36214442795
33.5,3.75836275369135,-29.5,48.0608652903243,41.8390561447576,292.367649733291
34,3.75821724976269,-29.5,48.046848354359,41.8272705648286,292.373155038633
34.5,3.75807174583403,-29.5,48.0328314183937,41.8154849848996,292.378660343975
35,3.75792624190538,-29.5,48.0188144824284,41.8036994049706,292.384165649316
35.5,3.75778253720296,-29.5,48.0047975464631,41.7919138250416,292.389659958322
36,3.75763946132419,-29.5,47.9907806104978,41.7801282451126,292.395150424145
36.5,3.75749638544543,-29.5,47.9767636745324,41.7683426651836,292.400640889968
37,3.75735330956666,-29.5,47.9627467385671,41.7565570852546,292.406131355791
37.5,3.7572102336879,-29.5,47.9487298026018,41.7447715053256,292.411621821613
38,3.75706846165617,-29.5,47.9347128666365,41.7329859253966,292.417102578907
38.5,3.75692754763993,-29.5,47.9206959306712,41.7212003454677,292.422576947362
39,3.75678663362369,-29.5,47.9066789947059,41.7094147655387,292.428051315817
39.5,3.75664571960745,-29.5,47.8926620587406,41.6976291856097,292.433525684271
40,3.75650480559121,-29.5,47.8786451227753,41.6858436056807,292.439000052726
40.5,3.75636479375828,-29.5,47.86462818681,41.6740580257517,292.44446646089
41,3.75622581905089,-29.5,47.8506112508447,41.6622724458227,292.449923718118
41.5,3.7560868443435,-29.5,47.8365943148793,41.6504868658937,292.455380975346
42,3.75594786963611,-29.5,47.822577378914,41.6387012859647,292.460838232574
42.5,3.75580889492872,-29.5,47.8085604429487,41.6269157060357,292.466295489803
43,3.75567049395548,-29.5,47.7945435069834,41.6151301261067,292.471746893531
43.5,3.75553327215438,-29.5,47.7805265710181,41.6033445461777,292.477186266802
44,3.75539605035328,-29.5,47.7665096350528,41.5915589662488,292.482625640074
44.5,3.75525882855218,-29.5,47.7524926990875,41.5797733863198,292.488065013345
45,3.75512160675108,-29.5,47.7384757631222,41.5679878063908,292.493504386616
45.5,3.75498468723875,-29.5,47.7244588271569,41.5562022264618,292.498940260897
46,3.75484906146827,-29.5,47.7104418911916,41.5444166465328,292.504361160121
46.5,3.75471343569779,-29.5,47.6964249552263,41.5326310666038,292.509782059345
47,3.75457780992731,-29.5,47.6824080192609,41.5208454866748,292.515202958568
47.5,3.75444218415684,-29.5,47.6683910832956,41.5090599067458,292.520623857792
48,3.7543066064722,-29.5,47.6543741473303,41.4972743268168,292.52604415116
48.5,3.75417191447627,-29.5,47.640357211365,41.4854887468878,292.531453285305
49,3.75403763144995,-29.5,47.6263402753997,41.4737031669588,292.53685694487
49.5,3.75390347264679,-29.5,47.6123233394344,41.4619175870298,292.54225894155
50,3.80394168218133,1.27883765573638,47.5983161531373,41.4501402047194,292.547656141936
50.5,3.8262676651498,14.75,47.6053184730147,41.4560278252955,292.544380862387
51,3.82659218191991,14.75,47.6123269409973,41.46192061526,292.541530414049
51.5,3.82689272459558,14.75,47.61933540898,41.4678134052245,292.538681599292
52,3.82717376662962,14.75,47.6263438769626,41.473706195189,292.535837952288
52.5,3.82744024394264,14.75,47.6333523449453,41.4795989851535,292.5330009146
53,3.82769248131894,14.75,47.640360812928,41.4854917751179,292.530172970123
53.5,3.82793344067214,14.75,47.6473692809106,41.4913845650824,292.527354505022
54,3.8281644187326,14.75,47.6543777488933,41.4972773550469,292.524546175499
54.5,3.82838485933883,14.75,47.6613862168759,41.5031701450114,292.521750859346
55,3.82859907670637,14.75,47.6683946848586,41.5090629349759,292.518964289527
55.5,3.82880542399063,14.75,47.6754031528412,41.5149557249404,292.51619010733
56,3.82900433158888,14.75,47.6824116208239,41.5208485149049,292.513429328226
56.5,3.829197213746,14.75,47.6894200888065,41.5267413048694,292.510680716526
57,3.82938453415323,14.75,47.6964285567892,41.5326340948339,292.50794438227
57.5,3.8295667040522,14.75,47.7034370247719,41.5385268847984,292.505220417244
58,3.82974408983855,14.75,47.7104454927545,41.5444196747629,292.502508898436
58.5,3.82991701906788,14.75,47.7174539607371,41.5503124647274,292.499809874362
59,3.83008578585489,14.75,47.7244624287198,41.5562052546919,292.49712335607
59.5,3.83025065564641,14.75,47.7314708967024,41.5620980446564,292.494449329701
60,3.7986783164551,-4.88889157726427,47.7384737658495,41.5679861270639,292.491789287942
60.5,3.78255899803486,-14.75,47.731473196724,41.5620999785375,292.493245711462
61,3.78240051950794,-14.75,47.7244647287414,41.556207188573,292.494454682841
61.5,3.78225635646848,-14.75,47.7174562607587,41.5503143986085,292.495674717852
62,3.78212337368663,-14.75,47.7104477927761,41.5444216086441,292.496904863339
62.5,3.78199823350441,-14.75,47.7034393247934,41.5385288186796,292.498142770542
63,3.78188080464895,-14.75,47.6964308568108,41.5326360287151,292.499388849773
63.5,3.78176882324837,-14.75,47.6894223888281,41.5267432387506,292.500641037894
64,3.78166244692384,-14.75,47.6824139208455,41.5208504487861,292.501899800569
64.5,3.78156002510826,-14.75,47.6754054528628,41.5149576588216,292.503163391905
65,3.78146229744355,-14.75,47.6683969848802,41.5090648688571,292.504432896345
65.5,3.78136743525525,-14.75,47.6613885168975,41.5031720788926,292.505706080963
66,3.78127523262883,-14.75,47.6543800489148,41.4972792889281,292.506982693612
66.5,3.78118562894833,-14.75,47.6473715809322,41.4913864989636,292.508262672147
67,3.7810991197858,-14.75,47.6403631129495,41.4854937089991,292.50954666223
67.5,3.78101446722605,-14.75,47.6333546449669,41.4796009190346,292.51083305433
68,3.78093156482264,-14.75,47.6263461769842,41.4737081290701,292.512121703447
68.5,3.78085049895864,-14.75,47.6193377090016,41.4678153391056,292.513412708538
69,3.78077143399689,-14.75,47.6123292410189,41.4619225491411,292.514706216125
69.5,3.78069366464583,-14.75,47.6053207730363,41.4560297591766,292.516001278356
70,3.78061712612274,-14.75,47.5983123050536,41.4501369692121,292.517297784081
70.5,3.78054196479494,-14.75,47.591303837071,41.4442441792476,292.518595847992
71,3.78046817032783,-14.75,47.5842953690883,41.4383513892831,292.519895359016
71.5,3.78039566302579,-14.75,47.5772869011056,41.4324585993186,292.521196129019
72,3.78032415896925,-14.75,47.570278433123,41.4265658093541,292.522497864371
72.5,3.78025265491272,-14.75,47.5632699651403,41.4206730193897,292.523799599724
73,3.78018309811168,-14.75,47.5562614971577,41.4147802294252,292.525102843895
73.5,3.78011396769281,-14.75,47.549253029175,41.4088874394607,292.526406418445
74,3.78004508309567,-14.75,47.5422445611924,41.4029946494962,292.527710120388
74.5,3.77997794500353,-14.75,47.5352360932097,41.3971018595317,292.529014727421
75,3.7799108069114,-14.75,47.5282276252271,41.3912090695672,292.530319334455
75.5,3.77984439147747,-14.75,47.5212191572444,41.3853162796027,292.531624112455
76,3.77977894817133,-14.75,47.5142106892618,41.3794234896382,292.532929120443
76.5,3.7797135048652,-14.75,47.5072022212791,41.3735306996737,292.53423412843
77,3.77964912556438,-14.75,47.5001937532964,41.3676379097092,292.535539042102
77.5,3.77958514096379,-14.75,47.4931852853138,41.3617451197447,292.536843920788
78,3.77952119748266,-14.75,47.4861768173311,41.3558523297802,292.53814877961
78.5,3.77945848066677,-14.75,47.4791683493485,41.3499595398157,292.539453045855
79,3.77939576385088,-14.75,47.4721598813658,41.3440667498512,292.5407573121
79.5,3.77933341962197,-14.75,47.4651514133832,41.3381739598867,292.542061238306
80,3.77927181351165,-14.75,47.4581429454005,41.3322811699222,292.543364490874
80.5,3.77921020740132,-14.75,47.4511344774179,41.3263883799577,292.544667743441
81,3.7791492273069,-14.75,47.4441260094352,41.3204955899932,292.545970134497
81.5,3.77908860169451,-14.75,47.4371175414526,41.3146028000287,292.547272037722
82,3.77902797608212,-14.75,47.4301090734699,41.3087100100642,292.548573940946
82.5,3.77896817145623,-14.75,47.4231006054872,41.3028172200997,292.549874310544
83,3.77890841785712,-14.75,47.4160921375046,41.2969244301352,292.551174584824
83.5,3.7788488551683,-14.75,47.4090836695219,41.2910316401707,292.55247440054
84,3.77878988238659,-14.75,47.4020752015393,41.2851388502063,292.553772799312
84.5,3.77873090960488,-14.75,47.3950667335566,41.2792460602417,292.555071198084
85,3.77867249668568,-14.75,47.388058265574,41.2733532702772,292.556367833098
85.5,3.7786145464518,-14.75,47.3810497975913,41.2674604803128,292.557663010495
86,3.77855659621792,-14.75,47.3740413296087,41.2615676903483,292.558958187893
86.5,3.77849864598403,-14.75,47.367032861626,41.2556749003838,292.56025336529
87,3.77844069575015,-14.75,47.3600243936433,41.2497821104193,292.561548542687
87.5,3.7783829242,-14.75,47.3530159256607,41.2438893204548,292.562842968919
88,3.77832613764724,-14.75,47.346007457678,41.2379965304903,292.564133254344
88.5,3.77826935109448,-14.75,47.3389989896954,41.2321037405258,292.565423539769
89,3.77821256454172,-14.75,47.3319905217127,41.2262109505613,292.566713825194
89.5,3.77815577798896,-14.75,47.3249820537301,41.2203181605968,292.568004110619
90,3.7780989914362,-14.75,47.3179735857474,41.2144253706323,292.569294396044
90.5,3.77804294624057,-14.75,47.3109651177648,41.2085325806678,292.570580545267
91,3.77798713569239,-14.75,47.3039566497821,41.2026397907033,292.571865385339
91.5,3.7779313251442,-14.75,47.2969481817995,41.1967470007388,292.57315022541
92,3.77787551459602,-14.75,47.2899397138168,41.1908542107743,292.574435065481
92.5,3.77781970404784,-14.75,47.2829312458341,41.1849614208098,292.575719905553
93,3.77776419824855,-14.75,47.2759227778515,41.1790686308453,292.577002606868
93.5,3.77770922122006,-14.75,47.2689143098688,41.1731758408808,292.578281597221
94,3.77765424419158,-14.75,47.2619058418862,41.1672830509163,292.579560587574
94.5,3.7775992671631,-14.75,47.2548973739035,41.1613902609518,292.580839577927
95,3.77754429013462,-14.75,47.2478889059209,41.1554974709873,292.58211856828
95.5,3.77748931310613,-14.75,47.2408804379382,41.1496046810228,292.583397558633
96,3.77743503962468,-14.75,47.2338719699556,41.1437118910583,292.584670549687
96.5,3.77738078667064,-14.75,47.2268635019729,41.1378191010939,292.585943365699
97,3.77732653371661,-14.75,47.2198550339903,41.1319263111294,292.587216181711
97.5,3.77727228076257,-14.75,47.2128465660076,41.1260335211649,292.588488997722
98,3.77721802780853,-14.75,47.205838098025,41.1201407312004,292.589761813734
98.5,3.7771641434379,-14.75,47.1988296300423,41.1142479412359,292.591030920208
99,3.77711052852093,-14.75,47.1918211620596,41.1083551512714,292.592297314816
99.5,3.77705691360396,-14.75,47.184812694077,41.1024623613069,292.593563709423
100,3.77700329868699,-14.75,47.1778042260943,41.0965695713424,292.594830104031
100.5,3.77694968377002,-14.75,47.1707957581117,41.0906767813779,292.596096498639
101,3.77689617338632,-14.75,47.163787290129,41.0847839914134,292.597361681394
101.5,3.77684312746129,-14.75,47.1567788221464,41.0788912014489,292.598621479685
102,3.77679008153625,-14.75,47.1497703541637,41.0729984114844,292.599881277976
102.5,3.77673703561122,-14.75,47.1427618861811,41.0671056215199,292.601141076266
103,3.77668398968619,-14.75,47.1357534181984,41.0612128315554,292.602400874557
103.5,3.77663094376116,-14.75,47.1287449502158,41.0553200415909,292.603660672848
104,3.7765783032,-14.75,47.1217364822331,41.0494272516264,292.604915151248
104.5,3.77652577055633,-14.75,47.1147280142504,41.0435344616619,292.606168213367
105,3.77647323791266,-14.75,47.1077195462678,41.0376416716974,292.607421275486
105.5,3.77642070526899,-14.75,47.1007110782851,41.0317488817329,292.608674337605
106,3.77636817262532,-14.75,47.0937026103025,41.0258560917684,292.609927399724
106.5,3.77631582531669,-14.75,47.0866941423198,41.0199633018039,292.611177750672
107,3.77626376094733,-14.75,47.0796856743372,41.0140705118394,292.612423962648
107.5,3.77621169657796,-14.75,47.0726772063545,41.0081777218749,292.613670174623
108,3.77615963220859,-14.75,47.0656687383719,41.0022849319104,292.614916386598
108.5,3.77610756783922,-14.75,47.0586602703892,40.9963921419459,292.616162598574
109,3.77605550425391,-14.75,47.0516518024065,40.9904993519814,292.617408797961
109.5,3.77600387155896,-14.75,47.0446433344239,40.984606562017,292.618648079119
110,3.77595223886402,-14.75,47.0376348664412,40.9787137720525,292.619887360278
110.5,3.77590060616907,-14.75,47.0306263984586,40.972820982088,292.621126641436
111,3.77584897347412,-14.75,47.0236179304759,40.9669281921235,292.622365922595
111.5,3.77579734077918,-14.75,47.0166094624933,40.961035402159,292.623605203754
112,3.77574606680951,-14.75,47.0096009945106,40.9551426121945,292.624838100045
112.5,3.77569502426928,-14.75,47.002592526528,40.94924982223,292.626066877178
113,3.77564398172905,-14.75,46.9955840585453,40.9433570322655,292.62729565431
113.5,3.77559293918883,-14.75,46.9885755905627,40.937464242301,292.628524431443
114,3.7755418966486,-14.75,46.98156712258,40.9315714523365,292.629753208576
114.5,3.77549085410837,-14.75,46.9745586545974,40.925678662372,292.630981985709
115,3.77543981156814,-14.75,46.9675501866147,40.9197858724075,292.632210762841
115.5,3.77538876902791,-14.75,46.960541718632,40.913893082443,292.633439539974
116,3.77533772648768,-14.75,46.9535332506494,40.9080002924785,292.634668317107
116.5,3.77528668394745,-14.75,46.9465247826667,40.902107502514,292.63589709424
117,3.77523564140723,-14.75,46.9395163146841,40.8962147125495,292.637125871372
117.5,3.77518518353827,-14.75,46.9325078467014,40.890321922585,292.638343119167
118,3.77513485408482,-14.75,46.9254993787188,40.8844291326205,292.63955783469
118.5,3.77508452463136,-14.75,46.9184909107361,40.878536342656,292.640772550214
119,3.77503419517791,-14.75,46.9114824427535,40.8726435526915,292.641987265738
119.5,3.77498386572446,-14.75,46.9044739747708,40.8667507627271,292.643201981262
120,3.774933536271,-14.75,46.8974655067882,40.8608579727626,292.644416696786
120.5,3.77488320681755,-14.75,46.8904570388055,40.8549651827981,292.64563141231
121,3.77483287736409,-14.75,46.8834485708229,40.8490723928336,292.646846127833
121.5,3.77478254791064,-14.75,46.8764401028402,40.8431796028691,292.648060843357
122,3.77473221845718,-14.75,46.8694316348575,40.8372868129046,292.649275558881
122.5,3.77468190968611,-14.75,46.8624231668749,40.8313940229401,292.650489824799
123,3.77463222691069,-14.75,46.8554146988922,40.8255012329756,292.651690482471
123.5,3.77458254413528,-14.75,46.8484062309096,40.8196084430111,292.652891140142
124,3.77453286135986,-14.75,46.8413977629269,40.8137156530466,292.654091797813
124.5,3.77448317858445,-14.75,46.8343892949443,40.8078228630821,292.655292455484
125,3.77443349580903,-14.75,46.8273808269616,40.8019300731176,292.656493113155
125.5,3.77438381303361,-14.75,46.820372358979,40.7960372831531,292.657693770826
126,3.7743341302582,-14.75,46.8133638909963,40.7901444931886,292.658894428497
126.5,3.77428444748278,-14.75,46.8063554230136,40.7842517032241,292.660095086168
127,3.77423476470737,-14.75,46.799346955031,40.7783589132596,292.661295743839
