time,voltage,curr_density,SOC,SOC_est,temp
0,3.97963090818431,-29.5,85,72.89785,310
0.5,3.97926101670123,-29.5,84.9859830640347,72.886064420071,310.002117963471
1,3.97891863990496,-29.5,84.9719661280694,72.874278840142,310.00415946496
1.5,3.97859283213505,-29.5,84.9579491921041,72.862493260213,310.006235703192
2,3.9782793688533,-29.5,84.9439322561388,72.850707680284,310.00834254655
2.5,3.97797676244204,-29.5,84.9299153201734,72.838922100355,310.010480081632
3,3.97768216797452,-29.5,84.9158983842081,72.827136520426,310.012642833384
3.5,3.97739466857076,-29.5,84.9018814482428,72.8153509404971,310.014829871887
4,3.97711431103966,-29.5,84.8878645122775,72.8035653605681,310.017043508012
4.5,3.97683951093115,-29.5,84.8738475763122,72.7917797806391,310.019279480734
5,3.97656959782002,-29.5,84.8598306403469,72.7799942007101,310.021536364699
5.5,3.97630555930048,-29.5,84.8458137043816,72.7682086207811,310.023820185424
6,3.97604414608522,-29.5,84.8317967684163,72.7564230408521,310.026116817859
6.5,3.97578699479565,-29.5,84.817779832451,72.7446374609231,310.028434616552
7,3.97553394532311,-29.5,84.8037628964857,72.7328518809941,310.030774352223
7.5,3.97528319309883,-29.5,84.7897459605204,72.7210663010651,310.033126738948
8,3.97503627510085,-29.5,84.775729024555,72.7092807211361,310.035501064317
8.5,3.97479215918117,-29.5,84.7617120885897,72.6974951412071,310.037892432583
9,3.97454992931586,-29.5,84.7476951526244,72.6857095612782,310.040295405553
9.5,3.97431122111641,-29.5,84.7336782166591,72.6739239813492,310.04272105018
10,3.97407443437613,-29.5,84.7196612806938,72.6621384014202,310.045159745532
10.5,3.97383926626276,-29.5,84.7056443447285,72.6503528214912,310.047609434747
11,3.97360729571651,-29.5,84.6916274087632,72.6385672415622,310.050081954096
11.5,3.9733766524758,-29.5,84.6776104727979,72.6267816616332,310.052564396522
12,3.97314768230224,-29.5,84.6635935368326,72.6149960817042,310.055059361975
12.5,3.97292112523998,-29.5,84.6495766008673,72.6032105017752,310.057573225132
13,3.97269572231511,-29.5,84.6355596649019,72.5914249218462,310.060096410043
13.5,3.9724720175441,-29.5,84.6215427289366,72.5796393419172,310.062633471565
14,3.97225098592941,-29.5,84.6075257929713,72.5678537619882,310.065193564405
14.5,3.97203072775622,-29.5,84.593508857006,72.5560681820592,310.067760321044
15,3.97181046958302,-29.5,84.5794919210407,72.5442826021303,310.070327077682
15.5,3.97159295243534,-29.5,84.5654749850754,72.5324970222013,310.072918942644
16,3.9713767931689,-29.5,84.5514580491101,72.5207114422723,310.07552324606
16.5,3.97116063390245,-29.5,84.5374411131448,72.5089258623433,310.078127549475
17,3.97094650043284,-29.5,84.5234241771795,72.4971402824143,310.080751748616
17.5,3.97073394675281,-29.5,84.5094072412142,72.4853547024853,310.083391463162
18,3.97052139307279,-29.5,84.4953903052489,72.4735691225563,310.086031177708
18.5,3.97031029788361,-29.5,84.4813733692836,72.4617835426273,310.088686154623
19,3.97010094983418,-29.5,84.4673564333183,72.4499979626983,310.091359414471
19.5,3.96989160178474,-29.5,84.453339497353,72.4382123827693,310.09403267432
20,3.9696832548715,-29.5,84.4393225613877,72.4264268028403,310.096717044209
20.5,3.96947678277265,-29.5,84.4253056254223,72.4146412229114,310.099422219721
21,3.9692703106738,-29.5,84.411288689457,72.4028556429824,310.102127395234
21.5,3.96906446598806,-29.5,84.3972717534917,72.3910700630534,310.104839923508
22,3.96886059473194,-29.5,84.3832548175264,72.3792844831244,310.10757557874
22.5,3.96865672347582,-29.5,84.3692378815611,72.3674989031954,310.110311233972
23,3.96845317055065,-29.5,84.3552209455958,72.3557133232664,310.113050809054
23.5,3.96825166848242,-29.5,84.3412040096305,72.3439277433374,310.115815637884
24,3.96805016641419,-29.5,84.3271870736652,72.3321421634084,310.118580466714
24.5,3.96784872410076,-29.5,84.3131701376999,72.3203565834794,310.121346064802
25,3.96764939562546,-29.5,84.2991532017346,72.3085710035504,310.124138875525
25.5,3.96745006715017,-29.5,84.2851362657692,72.2967854236214,310.126931686249
26,3.96725073867488,-29.5,84.271119329804,72.2849998436925,310.129724496972
26.5,3.96705325819697,-29.5,84.2571023938386,72.2732142637635,310.132542065385
27,3.96685593706258,-29.5,84.2430854578733,72.2614286838345,310.135361768528
27.5,3.96665861592818,-29.5,84.229068521908,72.2496431039055,310.138181471672
28,3.96646281256526,-29.5,84.2150515859427,72.2378575239765,310.141022277475
28.5,3.96626735659249,-29.5,84.2010346499774,72.2260719440475,310.143867913291
29,3.96607190061973,-29.5,84.1870177140121,72.2142863641185,310.146713549107
29.5,3.96587825625116,-29.5,84.1730007780468,72.2025007841895,310.149585421799
30,3.96568536310891,-29.5,84.1589838420815,72.1907152042605,310.152468174256
30.5,3.96549246996666,-29.5,84.1449669061161,72.1789296243315,310.155350926714
31,3.96529957682441,-29.5,84.1309499701508,72.1671440444025,310.158233679172
31.5,3.96510668368216,-29.5,84.1169330341855,72.1553584644735,310.16111643163
32,3.96491379053991,-29.5,84.1029160982202,72.1435728845445,310.163999184088
32.5,3.96472242553841,-29.5,84.0888991622549,72.1317873046155,310.166905096767
33,3.96453263123698,-29.5,84.0748822262896,72.1200017246865,310.169834814687
33.5,3.96434283693554,-29.5,84.0608652903243,72.1082161447575,310.172764532607
34,3.96415304263411,-29.5,84.046848354359,72.0964305648286,310.175694250527
34.5,3.96396324833267,-29.5,84.0328314183937,72.0846449848996,310.178623968447
35,3.96377345403124,-29.5,84.0188144824284,72.0728594049706,310.181553686368
35.5,3.96358444146676,-29.5,84.0047975464631,72.0610738250416,310.184495748688
36,3.96339744518132,-29.5,83.9907806104977,72.0492882451126,310.187469650051
36.5,3.96321044889589,-29.5,83.9767636745324,72.0375026651836,310.190443551414
37,3.96302345261045,-29.5,83.9627467385671,72.0257170852546,310.193417452777
37.5,3.96283645632502,-29.5,83.9487298026018,72.0139315053256,310.19639135414
38,3.96264946003958,-29.5,83.9347128666365,72.0021459253967,310.199365255503
38.5,3.962462632323,-29.5,83.9206959306712,71.9903603454677,310.202341892072
39,3.96227820386664,-29.5,83.9066789947059,71.9785747655387,310.205357459148
39.5,3.96209377541028,-29.5,83.8926620587406,71.9667891856097,310.208373026223
40,3.96190934695392,-29.5,83.8786451227753,71.9550036056807,310.211388593298
40.5,3.96172491849756,-29.5,83.86462818681,71.9432180257517,310.214404160374
41,3.9615404900412,-29.5,83.8506112508447,71.9314324458227,310.217419727449
41.5,3.96135606158484,-29.5,83.8365943148793,71.9196468658937,310.220435294524
42,3.96117366819966,-29.5,83.822577378914,71.9078612859647,310.223484416488
42.5,3.96099162859603,-29.5,83.8085604429487,71.8960757060357,310.226539371712
43,3.96080958899239,-29.5,83.7945435069834,71.8842901261067,310.229594326937
43.5,3.96062754938876,-29.5,83.7805265710181,71.8725045461777,310.232649282161
44,3.96044550978512,-29.5,83.7665096350528,71.8607189662487,310.235704237385
44.5,3.96026347018149,-29.5,83.7524926990875,71.8489333863198,310.238759192609
45,3.96008286495874,-29.5,83.7384757631222,71.8371478063908,310.241837953796
45.5,3.95990307303779,-29.5,83.7244588271569,71.8253622264618,310.244930213094
46,3.95972328111684,-29.5,83.7104418911916,71.8135766465328,310.248022472391
46.5,3.95954348919589,-29.5,83.6964249552263,71.8017910666038,310.251114731689
47,3.95936369727494,-29.5,83.682408019261,71.7900054866748,310.254206990987
47.5,3.95918390535399,-29.5,83.6683910832957,71.7782199067458,310.257299250284
48,3.95900468592563,-29.5,83.6543741473304,71.7664343268168,310.260401010081
48.5,3.95882624289777,-29.5,83.640357211365,71.7546487468878,310.263515654225
49,3.95864818092645,-29.5,83.6263402753997,71.7428631669589,310.266636604417
49.5,3.95847052501465,-29.5,83.6123233394344,71.7310775870299,310.269764261617
50,4.01294240581349,6.87135670162168,83.5983179246308,71.7193016942088,310.272892460549
50.5,4.02513662230725,14.75,83.6053225987158,71.7251912942263,310.271909347304
51,4.02545613562319,14.75,83.6123310666985,71.7310840841908,310.271129229518
51.5,4.02575306486941,14.75,83.6193395346812,71.7369768741553,310.270351002911
52,4.02603329857027,14.75,83.6263480026638,71.7428696641198,310.269576580192
52.5,4.02629955571246,14.75,83.6333564706465,71.7487624540843,310.26880714586
53,4.02655412048976,14.75,83.6403649386291,71.7546552440488,310.268043509613
53.5,4.02679791600945,14.75,83.6473734066118,71.7605480340133,310.267286804741
54,4.02703383246252,14.75,83.6543818745945,71.7664408239778,310.266536242787
54.5,4.02726206528305,14.75,83.6613903425771,71.7723336139423,310.265792662291
55,4.02748345683444,14.75,83.6683988105598,71.7782264039067,310.2650562451
55.5,4.02769870155257,14.75,83.6754072785424,71.7841191938712,310.264327111382
56,4.02790838431926,14.75,83.6824157465251,71.7900119838358,310.263605333941
56.5,4.02811300600424,14.75,83.6894242145077,71.7959047738002,310.262890947898
57,4.02831299903756,14.75,83.6964326824904,71.8017975637647,310.262183974792
57.5,4.02850873952101,14.75,83.703441150473,71.8076903537292,310.261484426954
58,4.02870055739972,14.75,83.7104496184557,71.8135831436937,310.260792293142
58.5,4.02888874462022,14.75,83.7174580864383,71.8194759336582,310.260107539887
59,4.02907284754049,14.75,83.724466554421,71.8253687236227,310.259431839584
59.5,4.02925448473527,14.75,83.7314750224036,71.8312615135872,310.258761822217
60,3.99001156161089,-11.612869600329,83.7384759746539,71.8371479842487,310.258096968518
60.5,3.98513271640782,-14.75,83.731469121217,71.8312565518105,310.258672937481
61,3.98496893041065,-14.75,83.7244606532343,71.825363761846,310.259145818081
61.5,3.98481849209588,-14.75,83.7174521852516,71.8194709718814,310.259629199558
62,3.98467822404653,-14.75,83.710443717269,71.813578181917,310.260122169069
62.5,3.98454601030615,-14.75,83.7034352492864,71.8076853919525,310.260623897989
63,3.98441960855057,-14.75,83.6964267813038,71.801792601988,310.261132649936
63.5,3.98429906224233,-14.75,83.689418313321,71.7958998120235,310.261649136563
64,3.98418293480364,-14.75,83.6824098453384,71.790007022059,310.262172013086
64.5,3.98407060306207,-14.75,83.6754013773558,71.7841142320945,310.262700823778
65,3.98396157909294,-14.75,83.6683929093731,71.77822144213,310.263235161222
65.5,3.98385546321357,-14.75,83.6613844413905,71.7723286521655,310.263774670354
66,3.98375193174006,-14.75,83.6543759734078,71.766435862201,310.26431901881
66.5,3.9836507461892,-14.75,83.6473675054251,71.7605430722365,310.264867985758
67,3.98355184498026,-14.75,83.6403590374425,71.754650282272,310.265421681903
67.5,3.98345498854366,-14.75,83.6333505694598,71.7487574923075,310.265979831226
68,3.98335981110252,-14.75,83.6263421014772,71.742864702343,310.266541783576
68.5,3.98326595708676,-14.75,83.6193336334945,71.7369719123785,310.267106910686
69,3.98317341049363,-14.75,83.6123251655119,71.731079122414,310.267675174167
69.5,3.98308255716497,-14.75,83.6053166975292,71.7251863324495,310.268247765824
70,3.98299227143879,-14.75,83.5983082295465,71.719293542485,310.268821808336
70.5,3.98290393926492,-14.75,83.5912997615639,71.7134007525205,310.26940113881
71,3.98281603073343,-14.75,83.5842912935812,71.707507962556,310.269981685978
71.5,3.98272942632174,-14.75,83.5772828255986,71.7016151725916,310.270565983822
72,3.98264355755284,-14.75,83.5702743576159,71.6957223826271,310.271152506652
72.5,3.98255846477226,-14.75,83.5632658896333,71.6898295926626,310.271741376494
73,3.98247435313815,-14.75,83.5562574216506,71.683936802698,310.272333365282
73.5,3.98239059969996,-14.75,83.5492489536679,71.6780440127335,310.272926492731
74,3.98230801424021,-14.75,83.5422404856853,71.672151222769,310.273523514537
74.5,3.98222580278217,-14.75,83.5352320177026,71.6662584328045,310.274121849092
75,3.98214479537575,-14.75,83.52822354972,71.6603656428401,310.274724425496
75.5,3.98206378796933,-14.75,83.5212150817373,71.6544728528756,310.2753270019
76,3.98198278056291,-14.75,83.5142066137547,71.6485800629111,310.275929578304
76.5,3.98190302455175,-14.75,83.5071981457721,71.6426872729466,310.276536911422
77,3.98182376448446,-14.75,83.5001896777894,71.6367944829821,310.277146129685
77.5,3.98174450441717,-14.75,83.4931812098067,71.6309016930176,310.277755347948
78,3.98166554444141,-14.75,83.4861727418241,71.6250089030531,310.278365805123
78.5,3.98158772726934,-14.75,83.4791642738414,71.6191161130886,310.2789809803
79,3.98150991009726,-14.75,83.4721558058588,71.6132233231241,310.279596155477
79.5,3.98143209292518,-14.75,83.4651473378761,71.6073305331596,310.280211330655
80,3.98135512267342,-14.75,83.4581388698935,71.6014377431951,310.280830264314
80.5,3.98127851575831,-14.75,83.4511304019108,71.5955449532306,310.281450810397
81,3.9812019088432,-14.75,83.4441219339282,71.5896521632661,310.28207135648
81.5,3.98112549929499,-14.75,83.4371134659455,71.5837593733016,310.28269283494
82,3.98104992251979,-14.75,83.4301049979628,71.5778665833371,310.283318247489
82.5,3.98097434574458,-14.75,83.4230965299802,71.5719737933726,310.283943660038
83,3.98089876896937,-14.75,83.4160880619975,71.5660810034081,310.284569072587
83.5,3.980823798875,-14.75,83.4090795940149,71.5601882134436,310.285197532175
84,3.98074910983994,-14.75,83.4020711260322,71.5542954234791,310.285827403377
84.5,3.98067442080488,-14.75,83.3950626580495,71.5484026335146,310.286457274578
85,3.98059986719165,-14.75,83.3880541900669,71.5425098435501,310.287087867463
85.5,3.98052595108619,-14.75,83.3810457220842,71.5366170535856,310.287721857723
86,3.98045203498072,-14.75,83.3740372541016,71.5307242636212,310.288355847984
86.5,3.98037811887525,-14.75,83.367028786119,71.5248314736567,310.288989838245
87,3.98030465655987,-14.75,83.3600203181363,71.5189386836922,310.28962636522
87.5,3.98023142078639,-14.75,83.3530118501537,71.5130458937277,310.290264158579
88,3.98015818501291,-14.75,83.346003382171,71.5071531037632,310.290901951938
88.5,3.9800850454557,-14.75,83.3389949141884,71.5012603137987,310.291540308692
89,3.98001241550368,-14.75,83.3319864462057,71.4953675238342,310.292181649443
89.5,3.97993978555165,-14.75,83.324977978223,71.4894747338697,310.292822990195
90,3.97986715559963,-14.75,83.3179695102404,71.4835819439052,310.293464330947
90.5,3.9797950420627,-14.75,83.3109610422577,71.4776891539407,310.294108829447
91,3.97972320583065,-14.75,83.3039525742751,71.4717963639762,310.294755023597
91.5,3.9796513695986,-14.75,83.2969441062924,71.4659035740117,310.295401217746
92,3.97957953336655,-14.75,83.2899356383097,71.4600107840472,310.296047411896
92.5,3.9795076971345,-14.75,83.2829271703271,71.4541179940827,310.296693606045
93,3.97943586090245,-14.75,83.2759187023444,71.4482252041182,310.297339800195
93.5,3.9793640246704,-14.75,83.2689102343618,71.4423324141537,310.297985994344
94,3.97929276805346,-14.75,83.2619017663791,71.4364396241892,310.298635931313
94.5,3.97922184569502,-14.75,83.2548932983965,71.4305468342247,310.299288026728
95,3.97915092333658,-14.75,83.2478848304138,71.4246540442602,310.299940122144
95.5,3.97908000097814,-14.75,83.2408763624312,71.4187612542957,310.30059221756
96,3.97900907861971,-14.75,83.2338678944485,71.4128684643313,310.301244312976
96.5,3.97893815626127,-14.75,83.2268594264659,71.4069756743668,310.301896408392
97,3.97886723390283,-14.75,83.2198509584832,71.4010828844023,310.302548503807
97.5,3.97879679743131,-14.75,83.2128424905006,71.3951900944378,310.303203873943
98,3.97872666148409,-14.75,83.2058340225179,71.3892973044733,310.303861269516
98.5,3.97865652553688,-14.75,83.1988255545352,71.3834045145088,310.304518665088
99,3.97858638958966,-14.75,83.1918170865526,71.3775117245443,310.30517606066
99.5,3.97851625364245,-14.75,83.1848086185699,71.3716189345798,310.305833456233
100,3.97844611769523,-14.75,83.1778001505873,71.3657261446153,310.306490851805
100.5,3.97837598174802,-14.75,83.1707916826046,71.3598333546508,310.307148247377
101,3.97830626509283,-14.75,83.1637832146219,71.3539405646863,310.307808499826
101.5,3.97823682626114,-14.75,83.1567747466393,71.3480477747218,310.308470645246
102,3.97816738742944,-14.75,83.1497662786566,71.3421549847573,310.309132790666
102.5,3.97809794859775,-14.75,83.142757810674,71.3362621947928,310.309794936086
103,3.97802850976606,-14.75,83.1357493426913,71.3303694048283,310.310457081506
103.5,3.97795907093436,-14.75,83.1287408747087,71.3244766148638,310.311119226926
104,3.97788963210267,-14.75,83.121732406726,71.3185838248993,310.311781372346
104.5,3.97782056473049,-14.75,83.1147239387434,71.3126910349348,310.31244601321
105,3.97775176078479,-14.75,83.1077154707607,71.3067982449703,310.313112423758
105.5,3.97768295683909,-14.75,83.1007070027781,71.3009054550058,310.313778834305
106,3.97761415289339,-14.75,83.0936985347954,71.2950126650413,310.314445244853
106.5,3.97754534894769,-14.75,83.0866900668127,71.2891198750768,310.315111655401
107,3.97747654500199,-14.75,83.0796815988301,71.2832270851123,310.315778065949
107.5,3.97740774105629,-14.75,83.0726731308474,71.2773342951478,310.316444476497
108,3.97733927251422,-14.75,83.0656646628648,71.2714415051833,310.317113088475
108.5,3.97727105834699,-14.75,83.0586561948821,71.2655487152188,310.31778337005
109,3.97720284417977,-14.75,83.0516477268995,71.2596559252543,310.318453651625
109.5,3.97713463001254,-14.75,83.0446392589168,71.2537631352899,310.3191239332
110,3.97706641584531,-14.75,83.0376307909342,71.2478703453254,310.319794214775
110.5,3.97699820167808,-14.75,83.0306223229515,71.2419775553609,310.32046449635
111,3.97692998751086,-14.75,83.0236138549689,71.2360847653964,310.321134777925
111.5,3.97686207962494,-14.75,83.0166053869862,71.2301919754319,310.321806986003
112,3.9767944200059,-14.75,83.0095969190036,71.2242991854674,310.322480755675
112.5,3.97672676038685,-14.75,83.0025884510209,71.2184063955029,310.323154525346
113,3.97665910076781,-14.75,82.9955799830383,71.2125136055384,310.323828295018
113.5,3.97659144114877,-14.75,82.9885715150556,71.2066208155739,310.324502064689
114,3.97652378152973,-14.75,82.981563047073,71.2007280256094,310.32517583436
114.5,3.97645612191068,-14.75,82.9745545790903,71.1948352356449,310.325849604032
115,3.97638874432421,-14.75,82.9675461111077,71.1889424456804,310.326525057687
115.5,3.97632161096247,-14.75,82.960537643125,71.1830496557159,310.32720196958
116,3.97625447760074,-14.75,82.9535291751424,71.1771568657514,310.327878881472
116.5,3.976187344239,-14.75,82.9465207071597,71.1712640757869,310.328555793365
117,3.97612021087727,-14.75,82.939512239177,71.1653712858224,310.329232705258
117.5,3.97605307751553,-14.75,82.9325037711944,71.1594784958579,310.32990961715
118,3.97598594415379,-14.75,82.9254953032117,71.1535857058934,310.330586529043
118.5,3.9759190724249,-14.75,82.9184868352291,71.1476929159289,310.331264908198
119,3.97585244265354,-14.75,82.9114783672464,71.1418001259644,310.331944644273
119.5,3.97578581288219,-14.75,82.9044698992638,71.1359073359999,310.332624380349
120,3.97571918311083,-14.75,82.8974614312811,71.1300145460355,310.333304116425
120.5,3.97565255333948,-14.75,82.8904529632985,71.124121756071,310.3339838525
121,3.97558592356812,-14.75,82.8834444953158,71.1182289661065,310.334663588576
121.5,3.97551929379677,-14.75,82.8764360273332,71.112336176142,310.335343324651
122,3.97545290802832,-14.75,82.8694275593505,71.1064433861775,310.336024347127
122.5,3.97538676320892,-14.75,82.8624190913678,71.100550596213,310.336706639902
123,3.97532061838953,-14.75,82.8554106233852,71.0946578062485,310.337388932677
123.5,3.97525447357014,-14.75,82.8484021554025,71.088765016284,310.338071225452
124,3.97518832875075,-14.75,82.8413936874199,71.0828722263195,310.338753518227
124.5,3.97512218393135,-14.75,82.8343852194372,71.076979436355,310.339435811002
125,3.97505603911196,-14.75,82.8273767514546,71.0710866463905,310.340118103777
125.5,3.97499012242051,-14.75,82.8203682834719,71.065193856426,310.340801496903
126,3.97492444626518,-14.75,82.8133598154892,71.0593010664615,310.341486050228
126.5,3.97485877010985,-14.75,82.8063513475066,71.053408276497,310.342170603553
127,3.97479309395452,-14.75,82.7993428795239,71.0475154865325,310.342855156878
