time,voltage,curr_density,SOC,SOC_est,temp
0,3.76996963052881,-29.5,49,42.62869,289
0.5,3.76960215975777,-29.5,48.9859830640347,42.616904420071,289.005466463625
1,3.76926692847052,-29.5,48.9719661280694,42.605118840142,289.010705894817
1.5,3.76895012215812,-29.5,48.9579491921041,42.593333260213,289.015978091132
2,3.76864691304914,-29.5,48.9439322561388,42.581547680284,289.021277470061
2.5,3.76835596945845,-29.5,48.9299153201734,42.569762100355,289.026603309778
3,3.76807505897097,-29.5,48.9158983842081,42.557976520426,289.03195214303
3.5,3.76780282424099,-29.5,48.9018814482428,42.5461909404971,289.037321787717
4,3.76753830956962,-29.5,48.8878645122775,42.5344053605681,289.042710626571
4.5,3.76728072301265,-29.5,48.8738475763122,42.5226197806391,289.048117198178
5,3.76702940233192,-29.5,48.8598306403469,42.5108342007101,289.053540202103
5.5,3.76678379100373,-29.5,48.8458137043816,42.4990486207811,289.058978481408
6,3.76654341467641,-29.5,48.8317967684163,42.4872630408521,289.064430975444
6.5,3.76630974854685,-29.5,48.817779832451,42.4754774609231,289.069901949653
7,3.76607755721634,-29.5,48.8037628964856,42.4636918809941,289.075377011835
7.5,3.76585147474699,-29.5,48.7897459605203,42.4519063010651,289.080869038466
8,3.76562866693628,-29.5,48.775729024555,42.4401207211361,289.08637017263
8.5,3.76540863471063,-29.5,48.7617120885897,42.4283351412071,289.091879026294
9,3.76519368771808,-29.5,48.7476951526244,42.4165495612782,289.097401914905
9.5,3.76498071194715,-29.5,48.7336782166591,42.4047639813492,289.102930187064
10,3.76477107884359,-29.5,48.7196612806938,42.3929784014202,289.108467566264
10.5,3.76456467804143,-29.5,48.7056443447285,42.3811928214912,289.114013568674
11,3.76436000456131,-29.5,48.6916274087632,42.3694072415622,289.119564146141
11.5,3.76415902425867,-29.5,48.6776104727979,42.3576216616332,289.125124301391
12,3.76395994537994,-29.5,48.6635935368326,42.3458360817042,289.130689209706
12.5,3.76376277465483,-29.5,48.6495766008673,42.3340505017752,289.136258887907
13,3.76356874029088,-29.5,48.635559664902,42.3222649218462,289.141836084173
13.5,3.76337601272573,-29.5,48.6215427289367,42.3104793419172,289.147416303632
14,3.76318562931491,-29.5,48.6075257929713,42.2986937619882,289.153001864284
14.5,3.76299729349093,-29.5,48.593508857006,42.2869081820592,289.158591815907
15,3.76281022097862,-29.5,48.5794919210407,42.2751226021303,289.164184422384
15.5,3.76262703762864,-29.5,48.5654749850754,42.2633370222013,289.169784593676
16,3.76244385427866,-29.5,48.5514580491101,42.2515514422723,289.175384764969
16.5,3.76226067092868,-29.5,48.5374411131448,42.2397658623433,289.180984936261
17,3.76208171068937,-29.5,48.5234241771795,42.2279802824143,289.186592121841
17.5,3.76190350411319,-29.5,48.5094072412142,42.2161947024853,289.192200559202
18,3.76172529753701,-29.5,48.4953903052489,42.2044091225563,289.197808996563
18.5,3.76154986759808,-29.5,48.4813733692836,42.1926235426273,289.203420974293
19,3.76137605643144,-29.5,48.4673564333183,42.1808379626983,289.209035016048
19.5,3.76120224526481,-29.5,48.4533394973529,42.1690523827693,289.214649057804
20,3.76103005670113,-29.5,48.4393225613876,42.1572668028403,289.220264472425
20.5,3.76086015672136,-29.5,48.4253056254223,42.1454812229114,289.225881823392
21,3.76069025674159,-29.5,48.411288689457,42.1336956429824,289.231499174359
21.5,3.76052105037809,-29.5,48.3972717534917,42.1219100630534,289.237116781395
22,3.76035465331449,-29.5,48.3832548175264,42.1101244831244,289.242735425564
22.5,3.76018825625088,-29.5,48.3692378815611,42.0983389031954,289.248354069732
23,3.76002185918728,-29.5,48.3552209455958,42.0865533232664,289.253972713901
23.5,3.75985855612614,-29.5,48.3412040096305,42.0747677433374,289.2595908967
24,3.7596953124748,-29.5,48.3271870736652,42.0629821634084,289.265209070639
24.5,3.75953206882346,-29.5,48.3131701376999,42.0511965834794,289.270827244579
25,3.75937100469251,-29.5,48.2991532017346,42.0394110035504,289.276443866869
25.5,3.75921061266242,-29.5,48.2851362657693,42.0276254236214,289.282060010675
26,3.75905022063232,-29.5,48.271119329804,42.0158398436925,289.287676154481
26.5,3.75889124645882,-29.5,48.2571023938386,42.0040542637635,289.293290435357
27,3.7587334443185,-29.5,48.2430854578733,41.9922686838345,289.298903176292
27.5,3.75857564217819,-29.5,48.229068521908,41.9804831039055,289.304515917226
28,3.75841862073903,-29.5,48.2150515859427,41.9686975239765,289.310127137561
28.5,3.75826318001386,-29.5,48.2010346499774,41.9569119440475,289.315735279083
29,3.75810773928869,-29.5,48.1870177140121,41.9451263641185,289.321343420604
29.5,3.75795254438758,-29.5,48.1730007780468,41.9333407841895,289.326950918833
30,3.75779926463162,-29.5,48.1589838420815,41.9215552042605,289.332553405351
30.5,3.75764598487566,-29.5,48.1449669061161,41.9097696243315,289.338155891869
31,3.7574927051197,-29.5,48.1309499701508,41.8979840444025,289.343758378386
31.5,3.75734202503909,-29.5,48.1169330341855,41.8861984644735,289.349351639395
32,3.75719164377745,-29.5,48.1029160982202,41.8744128845445,289.354943839979
32.5,3.7570412625158,-29.5,48.0888991622549,41.8626273046156,289.360536040563
33,3.75689088125416,-29.5,48.0748822262896,41.8508417246866,289.366128241148
33.5,3.75674049999251,-29.5,48.0608652903243,41.8390561447576,289.371720441732
34,3.75659011873087,-29.5,48.046848354359,41.8272705648286,289.377312642316
34.5,3.7564413043992,-29.5,48.0328314183937,41.8154849848996,289.382897329528
35,3.75629430594822,-29.5,48.0188144824284,41.8036994049706,289.388473309658
35.5,3.75614730749723,-29.5,48.0047975464631,41.7919138250416,289.394049289788
36,3.75600030904625,-29.5,47.9907806104978,41.7801282451126,289.399625269917
36.5,3.75585331059527,-29.5,47.9767636745324,41.7683426651836,289.405201250047
37,3.75570631214429,-29.5,47.9627467385671,41.7565570852546,289.410777230177
37.5,3.75555939947032,-29.5,47.9487298026018,41.7447715053256,289.416352661378
38,3.75541530854809,-29.5,47.9347128666365,41.7329859253966,289.421910034835
38.5,3.75527121762586,-29.5,47.9206959306712,41.7212003454677,289.427467408292
39,3.75512712670364,-29.5,47.9066789947059,41.7094147655387,289.43302478175
39.5,3.75498303578141,-29.5,47.8926620587406,41.6976291856097,289.438582155207
40,3.75483894485918,-29.5,47.8786451227753,41.6858436056807,289.444139528664
40.5,3.75469485393695,-29.5,47.86462818681,41.6740580257517,289.449696902121
41,3.75455226817685,-29.5,47.8506112508447,41.6622724458227,289.45524210249
41.5,3.75441070354299,-29.5,47.8365943148793,41.6504868658937,289.46077904444
42,3.75426913890914,-29.5,47.822577378914,41.6387012859647,289.46631598639
42.5,3.75412757427528,-29.5,47.8085604429487,41.6269157060357,289.47185292834
43,3.75398600964142,-29.5,47.7945435069834,41.6151301261067,289.47738987029
43.5,3.75384444500756,-29.5,47.7805265710181,41.6033445461777,289.48292681224
44,3.75370323984949,-29.5,47.7665096350528,41.5915589662487,289.488460221169
44.5,3.75356389286142,-29.5,47.7524926990875,41.5797733863198,289.493975367521
45,3.75342454587335,-29.5,47.7384757631222,41.5679878063908,289.499490513873
45.5,3.75328519888528,-29.5,47.7244588271569,41.5562022264618,289.505005660224
46,3.7531458518972,-29.5,47.7104418911916,41.5444166465328,289.510520806576
46.5,3.75300650490913,-29.5,47.6964249552263,41.5326310666038,289.516035952928
47,3.75286715792106,-29.5,47.682408019261,41.5208454866748,289.52155109928
47.5,3.75272873150057,-29.5,47.6683910832956,41.5090599067458,289.527055966515
48,3.75259073327319,-29.5,47.6543741473303,41.4972743268168,289.532555962683
48.5,3.75245335805645,-29.5,47.640357211365,41.4854887468878,289.538048343303
49,3.75231598283971,-29.5,47.6263402753997,41.4737031669588,289.543540723924
49.5,3.75217860762298,-29.5,47.6123233394344,41.4619175870299,289.549033104544
50,3.81514811475394,8.21686472102242,47.598318350836,41.4501420525664,289.554514071527
50.5,3.82645540819775,14.75,47.6053233461418,41.4560319226695,289.551255255873
51,3.82678882002606,14.75,47.6123318141244,41.461924712634,289.548416704364
51.5,3.82709817816676,14.75,47.6193402821071,41.4678175025984,289.545578324766
52,3.82738821720751,14.75,47.6263487500897,41.473710292563,289.542743874432
52.5,3.82766298977451,14.75,47.6333572180724,41.4796030825274,289.539915523022
53,3.82792427104412,14.75,47.640365686055,41.4854958724919,289.537095035422
53.5,3.82817342996659,14.75,47.6473741540377,41.4913886624564,289.534284005192
54,3.82841268517492,14.75,47.6543826220204,41.4972814524209,289.531482502981
54.5,3.82864260261733,14.75,47.661391090003,41.5031742423854,289.528691661047
55,3.82886385797109,14.75,47.6683995579857,41.5090670323499,289.525912406717
55.5,3.82907738864936,14.75,47.6754080259683,41.5149598223144,289.523145079533
56,3.82928404166156,14.75,47.682416493951,41.5208526122789,289.520389729807
56.5,3.82948437879183,14.75,47.6894249619336,41.5267454022434,289.517646589336
57,3.82967889274336,14.75,47.6964334299163,41.5326381922079,289.514915830056
57.5,3.82986801825601,14.75,47.7034418978989,41.5385309821724,289.512197566771
58,3.83005213960961,14.75,47.7104503658816,41.5444237721369,289.509491884076
58.5,3.83023159885073,14.75,47.7174588338642,41.5503165621014,289.506798854676
59,3.83040670244955,14.75,47.7244673018469,41.5562093520659,289.504118529444
59.5,3.83057826040501,14.75,47.7314757698296,41.5621021420304,289.501449151082
60,3.83074541823617,14.75,47.7384842378122,41.5679949319949,289.498794269752
60.5,3.78164508544516,-14.75,47.7314841799911,41.5621092133783,289.500239714272
61,3.78148461624153,-14.75,47.7244757120085,41.5562164234138,289.501441464818
61.5,3.78133827650821,-14.75,47.7174672440258,41.5503236334493,289.502654826803
62,3.78120290189026,-14.75,47.7104587760432,41.5444308434848,289.503878729555
62.5,3.78107536966122,-14.75,47.7034503080605,41.5385380535203,289.505110911437
63,3.78095535167427,-14.75,47.6964418400778,41.5326452635558,289.506351577998
63.5,3.78084089548752,-14.75,47.6894333720952,41.5267524735913,289.507598901992
64,3.78073190715022,-14.75,47.6824249041125,41.5208596836269,289.508853099337
64.5,3.78062708003127,-14.75,47.6754164361299,41.5149668936624,289.510112738189
65,3.7805266471135,-14.75,47.6684079681472,41.5090741036979,289.511378299163
65.5,3.78042936471054,-14.75,47.6613995001646,41.5031813137334,289.51264821103
66,3.78033475933778,-14.75,47.6543910321819,41.4972885237689,289.513921862583
66.5,3.78024263140957,-14.75,47.6473825641993,41.4913957338044,289.515199012329
67,3.78015367699893,-14.75,47.6403740962166,41.4855029438399,289.516480691371
67.5,3.78006669727841,-14.75,47.6333656282339,41.4796101538754,289.517765192037
68,3.77998148347302,-14.75,47.6263571602513,41.4737173639109,289.519052208153
68.5,3.77989792655998,-14.75,47.6193486922687,41.4678245739464,289.520341576522
69,3.77981657933118,-14.75,47.612340224286,41.4619317839819,289.521634028523
69.5,3.77973655906038,-14.75,47.6053317563033,41.4560389940174,289.52292829071
70,3.77965778132759,-14.75,47.5983232883207,41.4501462040529,289.524224223114
70.5,3.77958020222989,-14.75,47.591314820338,41.4442534140884,289.525521739618
71,3.77950420576945,-14.75,47.5843063523554,41.4383606241239,289.526821260687
71.5,3.7794295954638,-14.75,47.5772978843727,41.4324678341594,289.528122402988
72,3.77935573423357,-14.75,47.5702894163901,41.4265750441949,289.529424420229
72.5,3.77928187300334,-14.75,47.5632809484074,41.4206822542304,289.53072643747
73,3.77921033841924,-14.75,47.5562724804248,41.4147894642659,289.532030854544
73.5,3.77913889076317,-14.75,47.5492640124421,41.4088966743014,289.533335361279
74,3.77906801536609,-14.75,47.5422555444594,41.4030038843369,289.534640339335
74.5,3.77899859390657,-14.75,47.5352470764768,41.3971110943724,289.53594651487
75,3.77892917244706,-14.75,47.5282386084941,41.3912183044079,289.537252690406
75.5,3.77886078668104,-14.75,47.5212301405115,41.3853255144435,289.538559451409
76,3.77879308885912,-14.75,47.5142216725288,41.379432724479,289.5398666013
76.5,3.77872539103719,-14.75,47.5072132045462,41.3735399345145,289.541173751191
77,3.77865905686502,-14.75,47.5002047365635,41.36764714455,289.5424812701
77.5,3.77859284236252,-14.75,47.4931962685809,41.3617543545855,289.543788821393
78,3.77852693437239,-14.75,47.4861878005982,41.355861564621,289.545096354135
78.5,3.77846200898541,-14.75,47.4791793326156,41.3499687746565,289.546403827406
79,3.77839708359842,-14.75,47.4721708646329,41.344075984692,289.547711300677
79.5,3.7783327864915,-14.75,47.4651623966502,41.3381831947275,289.549018492913
80,3.7782689906659,-14.75,47.4581539286676,41.332290404763,289.550325460922
80.5,3.77820519484029,-14.75,47.4511454606849,41.3263976147985,289.551632428931
81,3.77814227135694,-14.75,47.4441369927023,41.320504824834,289.552938645408
81.5,3.7780794728787,-14.75,47.4371285247196,41.3146120348695,289.554244754191
82,3.7780168457246,-14.75,47.430120056737,41.308719244905,289.555550641149
82.5,3.77795493443572,-14.75,47.4231115887543,41.3028264549405,289.556855601232
83,3.77789302314684,-14.75,47.4161031207716,41.296933664976,289.558160561314
83.5,3.77783151838481,-14.75,47.409094652789,41.2910408750115,289.559464797622
84,3.77777040178387,-14.75,47.4020861848063,41.285148085047,289.560768342855
84.5,3.77770928518292,-14.75,47.3950777168237,41.2792552950825,289.562071888088
85,3.77764876297546,-14.75,47.388069248841,41.273362505118,289.56337406925
85.5,3.77758836250971,-14.75,47.3810607808584,41.2674697151535,289.564675971028
86,3.77752810236504,-14.75,47.3740523128757,41.2615769251891,289.565977445043
86.5,3.77746864715189,-14.75,47.3670438448931,41.2556841352246,289.567276465264
87,3.77740919193874,-14.75,47.3600353769104,41.2497913452601,289.568575485484
87.5,3.77734973672559,-14.75,47.3530269089278,41.2438985552956,289.569874505705
88,3.77729028151245,-14.75,47.3460184409451,41.2380057653311,289.571173525926
88.5,3.7772308262993,-14.75,47.3390099729625,41.2321129753666,289.572472546146
89,3.77717222349685,-14.75,47.3320015049798,41.2262201854021,289.573768168698
89.5,3.77711385368552,-14.75,47.3249930369971,41.2203273954376,289.575062862558
90,3.77705548387418,-14.75,47.3179845690145,41.2144346054731,289.576357556419
90.5,3.77699711406285,-14.75,47.3109761010318,41.2085418155086,289.577652250279
91,3.77693874425151,-14.75,47.3039676330492,41.2026490255441,289.578946944139
91.5,3.77688076299335,-14.75,47.2969591650665,41.1967562355796,289.580239599215
92,3.77682331341373,-14.75,47.2899506970839,41.1908634456151,289.581529464513
92.5,3.77676586383412,-14.75,47.2829422291012,41.1849706556506,289.582819329811
93,3.7767084142545,-14.75,47.2759337611186,41.1790778656861,289.584109195108
93.5,3.77665096467489,-14.75,47.2689252931359,41.1731850757216,289.585399060406
94,3.77659356202625,-14.75,47.2619168251533,41.1672922857571,289.586688616414
94.5,3.77653690617884,-14.75,47.2549083571706,41.1613994957926,289.587973250775
95,3.77648025033143,-14.75,47.247899889188,41.1555067058281,289.589257885136
95.5,3.77642359448402,-14.75,47.2408914212053,41.1496139158636,289.590542519497
96,3.77636693863661,-14.75,47.2338829532227,41.1437211258991,289.591827153858
96.5,3.7763102827892,-14.75,47.22687448524,41.1378283359346,289.593111788219
97,3.77625411085757,-14.75,47.2198660172573,41.1319355459701,289.594392567461
97.5,3.77619815027161,-14.75,47.2128575492747,41.1260427560056,289.595671663016
98,3.77614218968564,-14.75,47.205849081292,41.1201499660412,289.596950758571
98.5,3.77608622909967,-14.75,47.1988406133094,41.1142571760767,289.598229854125
99,3.7760302685137,-14.75,47.1918321453267,41.1083643861122,289.59950894968
99.5,3.77597451329479,-14.75,47.1848236773441,41.1024715961477,289.600786122618
100,3.77591916958826,-14.75,47.1778152093614,41.0965788061832,289.602059443034
100.5,3.77586382588173,-14.75,47.1708067413788,41.0906860162187,289.603332763451
101,3.77580848217521,-14.75,47.1637982733961,41.0847932262542,289.604606083867
101.5,3.77575313846868,-14.75,47.1567898054134,41.0789004362897,289.605879404283
102,3.77569779476216,-14.75,47.1497813374308,41.0730076463252,289.6071527247
102.5,3.77564298787185,-14.75,47.1427728694481,41.0671148563607,289.60842026223
103,3.77558819769498,-14.75,47.1357644014655,41.0612220663962,289.609687619713
103.5,3.77553340751812,-14.75,47.1287559334828,41.0553292764317,289.610954977197
104,3.77547861734125,-14.75,47.1217474655002,41.0494364864672,289.612222334681
104.5,3.77542382716439,-14.75,47.1147389975175,41.0435436965027,289.613489692164
105,3.77536934156792,-14.75,47.1077305295349,41.0376509065382,289.614753346752
105.5,3.77531505342023,-14.75,47.1007220615522,41.0317581165737,289.616014600881
106,3.77526076527253,-14.75,47.0937135935696,41.0258653266092,289.617275855011
106.5,3.77520647712484,-14.75,47.0867051255869,41.0199725366447,289.618537109141
107,3.77515218897715,-14.75,47.0796966576042,41.0140797466802,289.61979836327
107.5,3.77509801286622,-14.75,47.0726881896216,41.0081869567157,289.621058105464
108,3.77504418465561,-14.75,47.0656797216389,41.0022941667512,289.622313152745
108.5,3.77499035644499,-14.75,47.0586712536563,40.9964013767867,289.623568200026
109,3.77493652823437,-14.75,47.0516627856736,40.9905085868222,289.624823247307
109.5,3.77488270002375,-14.75,47.044654317691,40.9846157968578,289.626078294587
110,3.77482887181313,-14.75,47.0376458497083,40.9787230068933,289.627333341868
110.5,3.77477541800587,-14.75,47.0306373817257,40.9728302169288,289.628582855416
111,3.77472201501954,-14.75,47.023628913743,40.9669374269643,289.629831617823
111.5,3.77466861203321,-14.75,47.0166204457604,40.9610446369998,289.63108038023
112,3.77461520904688,-14.75,47.0096119777777,40.9551518470353,289.632329142637
112.5,3.77456180606054,-14.75,47.002603509795,40.9492590570708,289.633577905044
113,3.77450870459014,-14.75,46.9955950418124,40.9433662671063,289.634821736036
113.5,3.77445588438143,-14.75,46.9885865738297,40.9374734771418,289.636060966878
114,3.77440306417272,-14.75,46.9815781058471,40.9315806871773,289.63730019772
114.5,3.77435024396401,-14.75,46.9745696378644,40.9256878972128,289.638539428563
115,3.7742974237553,-14.75,46.9675611698818,40.9197951072483,289.639778659405
115.5,3.77424460354659,-14.75,46.9605527018991,40.9139023172838,289.641017890248
116,3.77419178333788,-14.75,46.9535442339165,40.9080095273193,289.64225712109
116.5,3.77413896312917,-14.75,46.9465357659338,40.9021167373548,289.643496351932
117,3.77408614292046,-14.75,46.9395272979512,40.8962239473903,289.644735582775
117.5,3.77403332271175,-14.75,46.9325188299685,40.8903311574258,289.645974813617
118,3.77398050250304,-14.75,46.9255103619859,40.8844383674613,289.64721404446
118.5,3.77392824019796,-14.75,46.9185018940032,40.8785455774968,289.648443131976
119,3.77387612515814,-14.75,46.9114934260205,40.8726527875323,289.649669542041
119.5,3.77382401011831,-14.75,46.9044849580379,40.8667599975678,289.650895952107
120,3.77377189507849,-14.75,46.8974764900552,40.8608672076033,289.652122362172
120.5,3.77371978003866,-14.75,46.8904680220726,40.8549744176388,289.653348772238
121,3.77366766499883,-14.75,46.8834595540899,40.8490816276743,289.654575182303
121.5,3.77361554995901,-14.75,46.8764510861073,40.8431888377098,289.655801592368
122,3.77356343491918,-14.75,46.8694426181246,40.8372960477454,289.657028002434
122.5,3.77351131987936,-14.75,46.862434150142,40.8314032577809,289.658254412499
123,3.77345920483953,-14.75,46.8554256821593,40.8255104678164,289.659480822565
123.5,3.77340713136009,-14.75,46.8484172141766,40.8196176778519,289.660706396291
124,3.77335565621328,-14.75,46.841408746194,40.8137248878874,289.661919929493
124.5,3.77330418106646,-14.75,46.8344002782113,40.8078320979229,289.663133462695
125,3.77325270591965,-14.75,46.8273918102287,40.8019393079584,289.664346995897
125.5,3.77320123077284,-14.75,46.820383342246,40.7960465179939,289.665560529099
126,3.77314975562603,-14.75,46.8133748742634,40.7901537280294,289.666774062301
126.5,3.77309828047921,-14.75,46.8063664062807,40.7842609380649,289.667987595503
127,3.7730468053324,-14.75,46.7993579382981,40.7783681481004,289.669201128705
