time,voltage,curr_density,SOC,SOC_est,temp
0,3.66750265557404,-29.5,22,19.92682,322
0.5,3.6671616467183,-29.5,21.9859830640347,19.915034420071,322.008166777859
1,3.66684529372051,-29.5,21.9719661280694,19.903248840142,322.01599047058
1.5,3.66654408882115,-29.5,21.9579491921041,19.891463260213,322.023830326975
2,3.66625359065294,-29.5,21.9439322561388,19.879677680284,322.031682628725
2.5,3.66597208548263,-29.5,21.9299153201735,19.867892100355,322.039545947531
3,3.6656980578117,-29.5,21.9158983842081,19.8561065204261,322.04741871468
3.5,3.66543107288358,-29.5,21.9018814482428,19.8443209404971,322.055300562556
4,3.66516892635491,-29.5,21.8878645122775,19.8325353605681,322.063188627423
4.5,3.66491166224664,-29.5,21.8738475763122,19.8207497806391,322.071082876218
5,3.66465874274184,-29.5,21.8598306403469,19.8089642007101,322.078982495756
5.5,3.66440972620928,-29.5,21.8458137043816,19.7971786207811,322.086886771387
6,3.66416424490512,-29.5,21.8317967684163,19.7853930408521,322.094795064268
6.5,3.66392198549839,-29.5,21.817779832451,19.7736074609231,322.102706792263
7,3.663682676238,-29.5,21.8037628964857,19.7618218809941,322.110621412229
7.5,3.66344607978075,-29.5,21.7897459605204,19.7500363010651,322.118538439453
8,3.66321198852656,-29.5,21.7757290245551,19.7382507211361,322.126457441941
8.5,3.66298040349275,-29.5,21.7617120885897,19.7264651412071,322.13437808957
9,3.66275156897343,-29.5,21.7476951526244,19.7146795612782,322.142300178266
9.5,3.66252310172141,-29.5,21.7336782166591,19.7028939813492,322.150222364332
10,3.6622982132231,-29.5,21.7196612806938,19.6911084014202,322.158145499195
10.5,3.6620733667229,-29.5,21.7056443447285,19.6793228214912,322.166068630664
11,3.6618519283751,-29.5,21.6916274087632,19.6675372415622,322.173991486679
11.5,3.6616304900273,-29.5,21.6776104727979,19.6557516616332,322.181914342693
12,3.66141188634129,-29.5,21.6635935368326,19.6439660817042,322.189835904818
12.5,3.66119349185091,-29.5,21.6495766008673,19.6321805017752,322.197757371454
13,3.66097740009436,-29.5,21.635559664902,19.6203949218462,322.205676818217
13.5,3.66076171351473,-29.5,21.6215427289367,19.6086093419172,322.213595909573
14,3.66054789346572,-29.5,21.6075257929713,19.5968237619882,322.221512477741
14.5,3.66033463261239,-29.5,21.593508857006,19.5850381820592,322.229428289983
15,3.66012287601498,-29.5,21.5794919210407,19.5732526021303,322.237341302861
15.5,3.65991179976099,-29.5,21.5654749850754,19.5614670222013,322.245253049645
16,3.65970192524998,-29.5,21.5514580491101,19.5496814422723,322.253161897789
16.5,3.65949282661083,-29.5,21.5374411131448,19.5378958623433,322.261068874506
17,3.65928467594228,-29.5,21.5234241771795,19.5261102824143,322.268973001561
17.5,3.65907737688419,-29.5,21.5094072412142,19.5143247024853,322.276874568618
18,3.65887081155423,-29.5,21.4953903052489,19.5025391225563,322.284773477091
18.5,3.65866515809524,-29.5,21.4813733692836,19.4907535426273,322.292669081497
19,3.65846031075001,-29.5,21.4673564333183,19.4789679626983,322.300561040056
19.5,3.65825686598538,-29.5,21.4533394973529,19.4671823827693,322.308446655101
20,3.65805342122076,-29.5,21.4393225613876,19.4553968028403,322.316332270145
20.5,3.65784997645613,-29.5,21.4253056254223,19.4436112229113,322.32421788519
21,3.65764705711884,-29.5,21.411288689457,19.4318256429824,322.332100510311
21.5,3.65744619846212,-29.5,21.3972717534917,19.4200400630534,322.339971409212
22,3.65724533980541,-29.5,21.3832548175264,19.4082544831244,322.347842308113
22.5,3.65704448114869,-29.5,21.3692378815611,19.3964689031954,322.355713207013
23,3.65684371506475,-29.5,21.3552209455958,19.3846833232664,322.363583434835
23.5,3.65664509392199,-29.5,21.3412040096305,19.3728977433374,322.371438113537
24,3.65644647277923,-29.5,21.3271870736652,19.3611121634084,322.379292792238
24.5,3.65624785163648,-29.5,21.3131701376999,19.3493265834794,322.38714747094
25,3.65604923049372,-29.5,21.2991532017345,19.3375410035504,322.395002149641
25.5,3.65585233576005,-29.5,21.2851362657692,19.3257554236214,322.402841424106
26,3.65565567739801,-29.5,21.2711193298039,19.3139698436924,322.410678589496
26.5,3.65545901903597,-29.5,21.2571023938386,19.3021842637635,322.418515754886
27,3.65526236067394,-29.5,21.2430854578733,19.2903986838345,322.426352920276
27.5,3.6550669539565,-29.5,21.229068521908,19.2786131039055,322.434176728601
28,3.65487203938309,-29.5,21.2150515859427,19.2668275239765,322.441995284955
28.5,3.65467712480968,-29.5,21.2010346499774,19.2550419440475,322.449813841309
29,3.65448221023628,-29.5,21.1870177140121,19.2432563641185,322.457632397663
29.5,3.654288166679,-29.5,21.1730007780468,19.2314707841895,322.465440088979
30,3.65409481875702,-29.5,21.1589838420815,19.2196852042605,322.473239102954
30.5,3.65390147083504,-29.5,21.1449669061162,19.2078996243315,322.48103811693
31,3.65370812291307,-29.5,21.1309499701508,19.1961140444025,322.488837130905
31.5,3.653515334898,-29.5,21.1169330341855,19.1843284644735,322.496628104928
32,3.65332340743517,-29.5,21.1029160982202,19.1725428845445,322.504406721896
32.5,3.65313147997234,-29.5,21.0888991622549,19.1607573046156,322.512185338864
33,3.65293955250952,-29.5,21.0748822262896,19.1489717246866,322.519963955833
33.5,3.65274792682039,-29.5,21.0608652903243,19.1371861447576,322.527737651215
34,3.6525572980171,-29.5,21.046848354359,19.1254005648286,322.535495088526
34.5,3.65236666921381,-29.5,21.0328314183937,19.1136149848996,322.543252525837
35,3.65217604041053,-29.5,21.0188144824284,19.1018294049706,322.551009963148
35.5,3.651985496028,-29.5,21.0047975464631,19.0900438250416,322.558765856722
36,3.65179606343939,-29.5,20.9907806104978,19.0782582451126,322.566501419788
36.5,3.65160663085078,-29.5,20.9767636745325,19.0664726651836,322.574236982854
37,3.65141719826216,-29.5,20.9627467385671,19.0546870852546,322.58197254592
37.5,3.65122776567355,-29.5,20.9487298026018,19.0429015053256,322.589708108986
38,3.65103934092168,-29.5,20.9347128666365,19.0311159253967,322.59742321599
38.5,3.65085101734095,-29.5,20.9206959306712,19.0193303454677,322.605136269525
39,3.65066269376022,-29.5,20.9066789947059,19.0075447655387,322.612849323059
39.5,3.65047437017949,-29.5,20.8926620587406,18.9957591856097,322.620562376593
40,3.65028681874031,-29.5,20.8786451227753,18.9839736056807,322.628258170922
40.5,3.65009952885317,-29.5,20.86462818681,18.9721880257517,322.635948118938
41,3.64991223896604,-29.5,20.8506112508447,18.9604024458227,322.643638066955
41.5,3.64972494907891,-29.5,20.8365943148794,18.9486168658937,322.651328014971
42,3.64953849179158,-29.5,20.8225773789141,18.9368312859647,322.658997045158
42.5,3.64935262473033,-29.5,20.8085604429487,18.9250457060357,322.666651246795
43,3.64916675766908,-29.5,20.7945435069834,18.9132601261067,322.674305448432
43.5,3.64898089060782,-29.5,20.7805265710181,18.9014745461778,322.681959650069
44,3.64879502354657,-29.5,20.7665096350528,18.8896889662488,322.689613851706
44.5,3.64860915648532,-29.5,20.7524926990875,18.8779033863198,322.697268053343
45,3.64842328942407,-29.5,20.7384757631222,18.8661178063908,322.70492225498
45.5,3.64823742236281,-29.5,20.7244588271569,18.8543322264618,322.712576456616
46,3.64805184392361,-29.5,20.7104418911916,18.8425466465328,322.720222670678
46.5,3.64786708026969,-29.5,20.6964249552263,18.8307610666038,322.727846335668
47,3.64768242798954,-29.5,20.682408019261,18.8189754866748,322.735466608871
47.5,3.64749828077245,-29.5,20.6683910832957,18.8071899067458,322.743071500836
48,3.64731413355535,-29.5,20.6543741473304,18.7954043268168,322.7506763928
48.5,3.64712998633826,-29.5,20.6403572113651,18.7836187468878,322.758281284765
49,3.64694584849573,-29.5,20.6263402753997,18.7718331669589,322.765885878135
49.5,3.64676219798401,-29.5,20.6123233394344,18.7600475870299,322.773474949252
50,3.64657873151684,-29.5,20.5983064034691,18.7482620071009,322.781057943227
50.5,3.71566206470927,14.75,20.6053078629838,18.7541489042754,322.775480587071
51,3.71594571751288,14.75,20.6123163309664,18.7600416942399,322.770454671727
51.5,3.71621148390881,14.75,20.6193247989491,18.7659344842044,322.765440410567
52,3.71646281231838,14.75,20.6263332669318,18.7718272741689,322.760440262476
52.5,3.71670350913741,14.75,20.6333417349144,18.7777200641334,322.755454050583
53,3.71693463140796,14.75,20.6403502028971,18.7836128540979,322.750483351003
53.5,3.71715739401066,14.75,20.6473586708797,18.7895056440624,322.745529184367
54,3.71737321134825,14.75,20.6543671388624,18.7953984340269,322.740591160071
54.5,3.71758275107583,14.75,20.661375606845,18.8012912239914,322.735669687416
55,3.71778632566116,14.75,20.6683840748277,18.8071840139559,322.730766419296
55.5,3.71798513359668,14.75,20.6753925428103,18.8130768039204,322.725879475239
56,3.71817955861564,14.75,20.682401010793,18.8189695938849,322.721008925055
56.5,3.71836993994257,14.75,20.6894094787756,18.8248623838494,322.716154809515
57,3.71855657703383,14.75,20.6964179467583,18.8307551738138,322.711317154011
57.5,3.71873906899979,14.75,20.703426414741,18.8366479637783,322.706499520108
58,3.71891827594901,14.75,20.7104348827236,18.8425407537428,322.701699299461
58.5,3.7190945709539,14.75,20.7174433507063,18.8484335437073,322.696915578668
59,3.71926812616267,14.75,20.7244518186889,18.8543263336718,322.692148330572
59.5,3.71943932039444,14.75,20.7314602866716,18.8602191236363,322.687395988381
60,3.71960761426412,14.75,20.7384687546542,18.8661119136008,322.682663291937
60.5,3.67421743997945,-14.75,20.7314686968332,18.8602261949843,322.685238364471
61,3.67407296997174,-14.75,20.7244602288505,18.8543334050198,322.687474345364
61.5,3.67393996344564,-14.75,20.7174517608678,18.8484406150553,322.68971455984
62,3.67381547133469,-14.75,20.7104432928852,18.8425478250908,322.691958007615
62.5,3.67369782504914,-14.75,20.7034348249025,18.8366550351263,322.694203902602
63,3.67358559203936,-14.75,20.6964263569199,18.8307622451618,322.696451468002
63.5,3.67347769686881,-14.75,20.6894178889372,18.8248694551973,322.69870013018
64,3.67337338768143,-14.75,20.6824094209546,18.8189766652328,322.700949426937
64.5,3.6732726676036,-14.75,20.6754009529719,18.8130838752683,322.703199022488
65,3.6731750385258,-14.75,20.6683924849893,18.8071910853038,322.705448432403
65.5,3.67307898093573,-14.75,20.6613840170066,18.8012982953393,322.707697590303
66,3.67298578333368,-14.75,20.654375549024,18.7954055053748,322.709945893613
66.5,3.6728943616949,-14.75,20.6473670810413,18.7895127154103,322.712193249701
67,3.67280433492742,-14.75,20.6403586130586,18.7836199254458,322.714439735599
67.5,3.67271616094196,-14.75,20.633350145076,18.7777271354813,322.716684723915
68,3.67262946674453,-14.75,20.6263416770933,18.7718343455168,322.718928050606
68.5,3.67254378238212,-14.75,20.6193332091107,18.7659415555524,322.721170064114
69,3.67245933672165,-14.75,20.612324741128,18.7600487655879,322.723410239015
69.5,3.67237615031538,-14.75,20.6053162731454,18.7541559756234,322.725648025092
70,3.67229372069845,-14.75,20.5983078051627,18.7482631856589,322.727884153204
70.5,3.67221212748493,-14.75,20.5912993371801,18.7423703956944,322.730118321335
71,3.67213161586697,-14.75,20.5842908691974,18.7364776057299,322.73234945259
71.5,3.67205168503143,-14.75,20.5772824012147,18.7305848157654,322.73457869445
72,3.67197232536323,-14.75,20.5702739332321,18.7246920258009,322.736806022142
72.5,3.67189431380531,-14.75,20.5632654652494,18.7187992358364,322.739027810207
73,3.67181630224739,-14.75,20.5562569972668,18.7129064458719,322.741249598271
73.5,3.67173842884243,-14.75,20.5492485292841,18.7070136559074,322.743470657544
74,3.67166192565266,-14.75,20.5422400613015,18.7011208659429,322.745684488587
74.5,3.6715854224629,-14.75,20.5352315933188,18.6952280759784,322.74789831963
75,3.67150913812429,-14.75,20.5282231253362,18.6893352860139,322.750110638593
75.5,3.6714338580807,-14.75,20.5212146573535,18.6834424960494,322.752316018707
76,3.67135857803711,-14.75,20.5142061893709,18.6775497060849,322.754521398822
76.5,3.67128356486246,-14.75,20.5071977213882,18.6716569161204,322.756724438592
77,3.67120928711133,-14.75,20.5001892534056,18.6657641261559,322.758921028959
77.5,3.6711350093602,-14.75,20.4931807854229,18.6598713361914,322.761117619326
78,3.6710610252843,-14.75,20.4861723174402,18.6539785462269,322.763311011411
78.5,3.67098757808071,-14.75,20.4791638494576,18.6480857562624,322.765498556666
79,3.67091413087711,-14.75,20.4721553814749,18.6421929662979,322.76768610192
79.5,3.67084098985546,-14.75,20.4651469134923,18.6363001763334,322.769869562896
80,3.67076823705837,-14.75,20.4581384455096,18.6304073863689,322.772047845195
80.5,3.67069548426128,-14.75,20.451129977527,18.6245145964044,322.774226127495
81,3.67062304005372,-14.75,20.4441215095443,18.61862180644,322.776399409837
81.5,3.67055087141901,-14.75,20.4371130415617,18.6127290164755,322.778568227179
82,3.6704787027843,-14.75,20.430104573579,18.606836226511,322.78073704452
82.5,3.67040683870688,-14.75,20.4230961055963,18.6009434365465,322.78289994199
83,3.67033516480974,-14.75,20.4160876376137,18.595050646582,322.785059142805
83.5,3.67026349091259,-14.75,20.409079169631,18.5891578566175,322.787218343621
84,3.67019211404284,-14.75,20.4020707016484,18.583265066653,322.789370725219
84.5,3.67012086270341,-14.75,20.3950622336657,18.5773722766885,322.791520224866
85,3.67004961136398,-14.75,20.3880537656831,18.571479486724,322.793669724513
85.5,3.66997864767486,-14.75,20.3810452977004,18.5655866967595,322.795811502359
86,3.66990776032942,-14.75,20.3740368297178,18.559693906795,322.797951230804
86.5,3.66983687298398,-14.75,20.3670283617351,18.5538011168305,322.80009095925
87,3.66976638441476,-14.75,20.3600198937525,18.547908326866,322.802217740632
87.5,3.66969595146601,-14.75,20.3530114257698,18.5420155369015,322.804342716186
88,3.66962551851725,-14.75,20.3460029577871,18.536122746937,322.806467691739
88.5,3.66955508556849,-14.75,20.3389944898045,18.5302299569725,322.808592667293
89,3.66948465261973,-14.75,20.3319860218218,18.524337167008,322.810717642847
89.5,3.66941424524767,-14.75,20.3249775538392,18.5184443770435,322.812841581007
90,3.66934430168831,-14.75,20.3179690858565,18.512551587079,322.814946706875
90.5,3.66927435812895,-14.75,20.3109606178739,18.5066587971145,322.817051832744
91,3.66920441456959,-14.75,20.3039521498912,18.50076600715,322.819156958612
91.5,3.66913447101023,-14.75,20.2969436819086,18.4948732171855,322.821262084481
92,3.66906452745087,-14.75,20.2899352139259,18.488980427221,322.823367210349
92.5,3.66899467165076,-14.75,20.2829267459433,18.4830876372565,322.825467805614
93,3.66892511481524,-14.75,20.2759182779606,18.4771948472921,322.82755296672
93.5,3.66885555797972,-14.75,20.2689098099779,18.4713020573276,322.829638127827
94,3.6687860011442,-14.75,20.2619013419953,18.4654092673631,322.831723288933
94.5,3.66871644430869,-14.75,20.2548928740126,18.4595164773986,322.833808450039
95,3.66864688747317,-14.75,20.24788440603,18.4536236874341,322.835893611145
95.5,3.66857745701881,-14.75,20.2408759380473,18.4477308974696,322.83797077056
96,3.66850821487933,-14.75,20.2338674700647,18.4418381075051,322.840036007012
96.5,3.66843897273984,-14.75,20.226859002082,18.4359453175406,322.842101243465
97,3.66836973060036,-14.75,20.2198505340994,18.4300525275761,322.844166479917
97.5,3.66830048846088,-14.75,20.2128420661167,18.4241597376116,322.84623171637
98,3.6682312463214,-14.75,20.2058335981341,18.4182669476471,322.848296952822
98.5,3.6681621560716,-14.75,20.1988251301514,18.4123741576826,322.850350758311
99,3.66809317750819,-14.75,20.1918166621687,18.4064813677181,322.852396158469
99.5,3.66802419894478,-14.75,20.1848081941861,18.4005885777536,322.854441558627
100,3.66795522038137,-14.75,20.1777997262034,18.3946957877891,322.856486958785
100.5,3.66788624181795,-14.75,20.1707912582208,18.3888029978246,322.858532358943
101,3.66781726325454,-14.75,20.1637827902381,18.3829102078601,322.860577759101
101.5,3.66774845433773,-14.75,20.1567743222555,18.3770174178956,322.862608324769
102,3.66767970168886,-14.75,20.1497658542728,18.3711246279311,322.864633970171
102.5,3.66761094903999,-14.75,20.1427573862902,18.3652318379666,322.866659615574
103,3.66754219639112,-14.75,20.1357489183075,18.3593390480021,322.868685260976
103.5,3.66747344374224,-14.75,20.1287404503248,18.3534462580376,322.870710906378
104,3.66740469109337,-14.75,20.1217319823422,18.3475534680731,322.872736551781
104.5,3.66733612052718,-14.75,20.1147235143595,18.3416606781086,322.874743988084
105,3.66726756459682,-14.75,20.1077150463769,18.3357678881441,322.876749960739
105.5,3.66719900866645,-14.75,20.1007065783942,18.3298750981796,322.878755933393
106,3.66713045273609,-14.75,20.0936981104116,18.3239823082152,322.880761906047
106.5,3.66706189680572,-14.75,20.0866896424289,18.3180895182507,322.882767878702
107,3.66699335826387,-14.75,20.0796811744463,18.3121967282862,322.884771892836
107.5,3.66692497575436,-14.75,20.0726727064636,18.3063039383217,322.886758332574
108,3.66685659324486,-14.75,20.065664238481,18.3004111483572,322.888744772312
108.5,3.66678821073535,-14.75,20.0586557704983,18.2945183583927,322.890731212051
109,3.66671982822585,-14.75,20.0516473025156,18.2886255684282,322.892717651789
109.5,3.66665144571634,-14.75,20.044638834533,18.2827327784637,322.894704091528
110,3.6665831057023,-14.75,20.0376303665503,18.2768399884992,322.896685203777
110.5,3.66651487775814,-14.75,20.0306218985677,18.2709471985347,322.898652266266
111,3.66644664981399,-14.75,20.023613430585,18.2650544085702,322.900619328755
111.5,3.66637842186983,-14.75,20.0166049626024,18.2591616186057,322.902586391244
112,3.66631019392568,-14.75,20.0095964946197,18.2532688286412,322.904553453733
112.5,3.66624196598152,-14.75,20.0025880266371,18.2473760386767,322.906520516221
113,3.66617380048574,-14.75,19.9955795586544,18.2414832487122,322.908478926802
113.5,3.66610571143836,-14.75,19.9885710906718,18.2355904587477,322.910426745842
114,3.66603762239098,-14.75,19.9815626226891,18.2296976687832,322.912374564881
114.5,3.66596953334359,-14.75,19.9745541547065,18.2238048788187,322.914322383921
115,3.66590144429621,-14.75,19.9675456867238,18.2179120888542,322.91627020296
115.5,3.66583335524883,-14.75,19.9605372187411,18.2120192988897,322.918218022
116,3.66576537989509,-14.75,19.9535287507585,18.2061265089252,322.920148008252
116.5,3.66569747297017,-14.75,19.9465202827758,18.2002337189607,322.92206726148
117,3.66562956604526,-14.75,19.9395118147932,18.1943409289963,322.923986514708
117.5,3.66556165912034,-14.75,19.9325033468105,18.1884481390318,322.925905767936
118,3.66549375219542,-14.75,19.9254948788279,18.1825553490673,322.927825021164
118.5,3.6654258452705,-14.75,19.9184864108452,18.1766625591028,322.929744274392
119,3.66535793834558,-14.75,19.9114779428626,18.1707697691383,322.93166352762
119.5,3.66529003142067,-14.75,19.9044694748799,18.1648769791738,322.933582780848
120,3.66522212449575,-14.75,19.8974610068972,18.1589841892093,322.935502034076
120.5,3.66515421757083,-14.75,19.8904525389146,18.1530913992448,322.937421287304
121,3.66508631064591,-14.75,19.8834440709319,18.1471986092803,322.939340540532
121.5,3.66501840372099,-14.75,19.8764356029493,18.1413058193158,322.94125979376
122,3.66495069640566,-14.75,19.8694271349666,18.1354130293513,322.943142384245
122.5,3.66488299450177,-14.75,19.862418666984,18.1295202393868,322.945023980797
123,3.66481529259789,-14.75,19.8554101990013,18.1236274494223,322.946905577349
123.5,3.664747590694,-14.75,19.8484017310187,18.1177346594578,322.948787173901
124,3.66467988879012,-14.75,19.841393263036,18.1118418694933,322.950668770452
124.5,3.66461218688623,-14.75,19.8343847950534,18.1059490795288,322.952550367004
125,3.66454448498235,-14.75,19.8273763270707,18.1000562895643,322.954431963556
125.5,3.66447678307846,-14.75,19.820367859088,18.0941634995998,322.956313560108
126,3.66440908117458,-14.75,19.8133593911054,18.0882707096353,322.958195156659
126.5,3.6643413792707,-14.75,19.8063509231227,18.0823779196708,322.960076753211
127,3.66427367736681,-14.75,19.7993424551401,18.0764851297063,322.961958349763
