time,voltage,curr_density,SOC,SOC_est,temp
0,3.88678797203479,-29.5,74,63.64894,271
0.5,3.88631577398375,-29.5,73.9859830640347,63.637154420071,271.004482052813
1,3.88586860499242,-29.5,73.9719661280694,63.625368840142,271.008876174957
1.5,3.88543710034511,-29.5,73.9579491921041,63.613583260213,271.01333435951
2,3.88501672795985,-29.5,73.9439322561387,63.601797680284,271.017846104594
2.5,3.884605950679,-29.5,73.9299153201734,63.590012100355,271.022409376265
3,3.88420327484601,-29.5,73.9158983842081,63.578226520426,271.02701967525
3.5,3.88380759701678,-29.5,73.9018814482428,63.566440940497,271.031672854167
4,3.88341857409554,-29.5,73.8878645122775,63.554655360568,271.036368691507
4.5,3.88303611611002,-29.5,73.8738475763122,63.5428697806391,271.041108294438
5,3.8826602581612,-29.5,73.8598306403469,63.5310842007101,271.045893654677
5.5,3.88228782772716,-29.5,73.8458137043816,63.5192986207811,271.050703292708
6,3.88192156068981,-29.5,73.8317967684163,63.5075130408521,271.055557435633
6.5,3.88156060333144,-29.5,73.817779832451,63.4957274609231,271.060451058178
7,3.88120377908454,-29.5,73.8037628964857,63.4839418809941,271.065376010017
7.5,3.88085095010685,-29.5,73.7897459605203,63.4721563010651,271.070331638124
8,3.88050269478115,-29.5,73.775729024555,63.4603707211361,271.07532297637
8.5,3.88015902772169,-29.5,73.7617120885897,63.4485851412071,271.080350854641
9,3.87981879865264,-29.5,73.7476951526244,63.4367995612781,271.085406508788
9.5,3.87948190952083,-29.5,73.7336782166591,63.4250139813492,271.090489387997
10,3.87914870929186,-29.5,73.7196612806938,63.4132284014202,271.095602672465
10.5,3.87882149926572,-29.5,73.7056443447285,63.4014428214912,271.100766252079
11,3.87849494629906,-29.5,73.6916274087632,63.3896572415622,271.105935348519
11.5,3.87817049935457,-29.5,73.6776104727979,63.3778716616332,271.111122514216
12,3.87785210024003,-29.5,73.6635935368326,63.3660860817042,271.116361569106
12.5,3.87753370112549,-29.5,73.6495766008673,63.3543005017752,271.121600623996
13,3.87721989370549,-29.5,73.635559664902,63.3425149218462,271.126879784905
13.5,3.87690895569309,-29.5,73.6215427289367,63.3307293419172,271.132184008569
14,3.8765980176807,-29.5,73.6075257929713,63.3189437619882,271.137488232233
14.5,3.87629362411477,-29.5,73.593508857006,63.3071581820592,271.142851506674
15,3.87598941526496,-29.5,73.5794919210407,63.2953726021302,271.148216447816
15.5,3.87568737799529,-29.5,73.5654749850754,63.2835870222013,271.153600176235
16,3.87538975603693,-29.5,73.5514580491101,63.2718014422722,271.159022103418
16.5,3.87509213407857,-29.5,73.5374411131448,63.2600158623433,271.164444030601
17,3.87479783362497,-29.5,73.5234241771795,63.2482302824143,271.16990158543
17.5,3.87450504776992,-29.5,73.5094072412141,63.2364447024853,271.175375386384
18,3.87421255532269,-29.5,73.4953903052488,63.2246591225563,271.180851394221
18.5,3.87392644595285,-29.5,73.4813733692835,63.2128735426273,271.186375412751
19,3.87364033658302,-29.5,73.4673564333182,63.2010879626983,271.191899431281
19.5,3.87335592383744,-29.5,73.4533394973529,63.1893023827693,271.197440985263
20,3.87307404462133,-29.5,73.4393225613876,63.1775168028403,271.203008724529
20.5,3.87279225411642,-29.5,73.4253056254223,63.1657312229113,271.208577299992
21,3.87251431804268,-29.5,73.411288689457,63.1539456429824,271.214182207522
21.5,3.87223638196894,-29.5,73.3972717534917,63.1421600630534,271.219787115053
22,3.87196190624588,-29.5,73.3832548175264,63.1303744831244,271.225421612949
22.5,3.87168789447486,-29.5,73.3692378815611,63.1185889031954,271.231060078221
23,3.87141621155403,-29.5,73.3552209455958,63.1068033232664,271.236721899581
23.5,3.87114534241141,-29.5,73.3412040096304,63.0950177433374,271.242391882339
24,3.87087628333762,-29.5,73.3271870736652,63.0832321634084,271.248079774112
24.5,3.87060842932414,-29.5,73.3131701376999,63.0714465834794,271.253779588882
25,3.87034222365888,-29.5,73.2991532017345,63.0596610035504,271.259492578296
25.5,3.87007795608409,-29.5,73.2851362657692,63.0478754236214,271.265221058159
26,3.86981469573364,-29.5,73.2711193298039,63.0360898436924,271.270959199495
26.5,3.86955358676121,-29.5,73.2571023938386,63.0243042637635,271.276717977227
27,3.86929247778879,-29.5,73.2430854578733,63.0125186838345,271.282476754959
27.5,3.86903362813613,-29.5,73.229068521908,63.0007331039055,271.288255713516
28,3.86877606456564,-29.5,73.2150515859427,62.9889475239765,271.29404615969
28.5,3.86851850099516,-29.5,73.2010346499774,62.9771619440475,271.299836605863
29,3.86826392356805,-29.5,73.1870177140121,62.9653763641185,271.305655282457
29.5,3.86800948480731,-29.5,73.1730007780468,62.9535907841895,271.311475269976
30,3.86775595080344,-29.5,73.1589838420815,62.9418052042605,271.317302856289
30.5,3.86750481413975,-29.5,73.1449669061162,62.9300196243315,271.323150577176
31,3.86725367747605,-29.5,73.1309499701508,62.9182340444025,271.328998298064
31.5,3.867004191567,-29.5,73.1169330341855,62.9064484644735,271.334861347255
32,3.86675584162107,-29.5,73.1029160982202,62.8946628845445,271.340734944583
32.5,3.86650749167514,-29.5,73.0888991622549,62.8828773046156,271.346608541911
33,3.86626187206776,-29.5,73.0748822262896,62.8710917246866,271.35250428989
33.5,3.86601652006988,-29.5,73.0608652903243,62.8593061447576,271.358402208929
34,3.86577172823531,-29.5,73.046848354359,62.8475205648286,271.364305310923
34.5,3.86552882122999,-29.5,73.0328314183937,62.8357349848996,271.370225852451
35,3.86528591422466,-29.5,73.0188144824283,62.8239494049706,271.376146393979
35.5,3.86504451819076,-29.5,73.004797546463,62.8121638250416,271.382078573279
36,3.86480437106693,-29.5,72.9907806104977,62.8003782451126,271.388020371908
36.5,3.8645642239431,-29.5,72.9767636745324,62.7885926651836,271.393962170537
37,3.86432593300778,-29.5,72.9627467385671,62.7768070852546,271.399921040081
37.5,3.86408792966624,-29.5,72.9487298026018,62.7650215053256,271.405882554556
38,3.8638504008739,-29.5,72.9347128666365,62.7532359253966,271.411847490106
38.5,3.8636149735512,-29.5,72.9206959306712,62.7414503454676,271.417827575374
39,3.8633795462285,-29.5,72.9066789947059,62.7296647655387,271.423807660642
39.5,3.8631450522031,-29.5,72.8926620587406,62.7178791856097,271.429796360795
40,3.86291148186091,-29.5,72.8786451227753,62.7060936056807,271.43579358709
40.5,3.86267791151872,-29.5,72.86462818681,62.6943080257517,271.441790813385
41,3.86244634305634,-29.5,72.8506112508447,62.6825224458227,271.44780132405
41.5,3.86221521117857,-29.5,72.8365943148793,62.6707368658937,271.453814731867
42,3.86198429884394,-29.5,72.822577378914,62.6589512859647,271.459830206678
42.5,3.86175474267479,-29.5,72.8085604429487,62.6471657060357,271.46585844976
43,3.86152518650564,-29.5,72.7945435069834,62.6353801261067,271.471886692841
43.5,3.86129670519898,-29.5,72.7805265710181,62.6235945461777,271.477921375173
44,3.86106949742762,-29.5,72.7665096350528,62.6118089662487,271.483963686958
44.5,3.86084228965625,-29.5,72.7524926990875,62.6000233863197,271.490005998743
45,3.86061608390449,-29.5,72.7384757631222,62.5882378063908,271.496058207613
45.5,3.8603901672775,-29.5,72.7244588271569,62.5764522264618,271.502113272209
46,3.86016446852161,-29.5,72.7104418911916,62.5646666465328,271.508169487845
46.5,3.85994085883721,-29.5,72.6964249552262,62.5528810666038,271.514236740317
47,3.85971724915281,-29.5,72.6824080192609,62.5410954866748,271.520303992788
47.5,3.85949405004572,-29.5,72.6683910832956,62.5293099067458,271.526375732609
48,3.85927143494782,-29.5,72.6543741473303,62.5175243268168,271.532453855279
48.5,3.85904881984991,-29.5,72.640357211365,62.5057387468878,271.53853197795
49,3.85882768036502,-29.5,72.6263402753997,62.4939531669588,271.544617238284
49.5,3.85860708338534,-29.5,72.6123233394344,62.4821675870298,271.550705122761
50,3.85838673149159,-29.5,72.5983064034691,62.4703820071008,271.556794642695
50.5,3.95022063397875,14.75,72.6053078629838,62.4762689042754,271.554538652939
51,3.95066976458584,14.75,72.6123163309664,62.4821616942399,271.552516748455
51.5,3.95109375386554,14.75,72.6193247989491,62.4880544842043,271.550463854051
52,3.95149889195818,14.75,72.6263332669317,62.4939472741689,271.548389099455
52.5,3.95188972261555,14.75,72.6333417349144,62.4998400641334,271.546300001076
53,3.95226771415744,14.75,72.6403502028971,62.5057328540979,271.544200564957
53.5,3.9526342899724,14.75,72.6473586708797,62.5116256440623,271.542094517489
54,3.95298926960624,14.75,72.6543671388623,62.5175184340268,271.539984740092
54.5,3.95333597966665,14.75,72.661375606845,62.5234112239913,271.537874336782
55,3.95367389235318,14.75,72.6683840748277,62.5293040139558,271.535764993858
55.5,3.95400361639145,14.75,72.6753925428103,62.5351968039203,271.533658496597
56,3.95432568163346,14.75,72.6824010107929,62.5410895938848,271.531556348309
56.5,3.95464055536686,14.75,72.6894094787756,62.5469823838493,271.5294598216
57,3.95494865690771,14.75,72.6964179467583,62.5528751738138,271.527370003525
57.5,3.95525036792119,14.75,72.7034264147409,62.5587679637783,271.525287835226
58,3.95554603643833,14.75,72.7104348827236,62.5646607537428,271.523214134616
58.5,3.95583562446632,14.75,72.7174433507062,62.5705535437073,271.521150308764
59,3.95611788022515,14.75,72.7244518186889,62.5764463336718,271.519100000395
59.5,3.95639987898054,14.75,72.7314602866715,62.5823391236363,271.517050224322
60,3.95667423192013,14.75,72.7384687546542,62.5882319136008,271.515016551384
60.5,3.89629249408848,-14.75,72.7314686968331,62.5823461949843,271.516155870298
61,3.89611000057425,-14.75,72.7244602288505,62.5764534050198,271.517168293819
61.5,3.89593991378469,-14.75,72.7174517608678,62.5705606150553,271.518202664258
62,3.8957782058937,-14.75,72.7104432928851,62.5646678250908,271.519254083038
62.5,3.89562296746399,-14.75,72.7034348249025,62.5587750351263,271.520320214945
63,3.89547319558057,-14.75,72.6964263569198,62.5528822451618,271.521399889214
63.5,3.89532753839164,-14.75,72.6894178889372,62.5469894551973,271.522490459758
64,3.89518596607281,-14.75,72.6824094209545,62.5410966652328,271.523592475529
64.5,3.89504781268694,-14.75,72.6754009529719,62.5352038752683,271.52470452202
65,3.89491285554277,-14.75,72.6683924849892,62.5293110853038,271.525826372265
65.5,3.89478087701226,-14.75,72.6613840170066,62.5234182953393,271.526957702646
66,3.89465145786841,-14.75,72.6543755490239,62.5175255053748,271.528097499592
66.5,3.89452405174783,-14.75,72.6473670810413,62.5116327154103,271.529244092763
67,3.89439868740613,-14.75,72.6403586130586,62.5057399254458,271.530397702374
67.5,3.89427597876692,-14.75,72.6333501450759,62.4998471354813,271.531560763408
68,3.89415481289277,-14.75,72.6263416770933,62.4939543455168,271.532729481506
68.5,3.8940351332795,-14.75,72.6193332091106,62.4880615555523,271.533903706324
69,3.89391729596486,-14.75,72.612324741128,62.4821687655878,271.535084896811
69.5,3.89380108270512,-14.75,72.6053162731453,62.4762759756233,271.53627239899
70,3.89368604425164,-14.75,72.5983078051626,62.4703831856588,271.537464540485
70.5,3.89357213877037,-14.75,72.59129933718,62.4644903956943,271.538661198347
71,3.89345988614738,-14.75,72.5842908691974,62.4585976057298,271.539864583873
71.5,3.89334906454386,-14.75,72.5772824012147,62.4527048157653,271.541073942991
72,3.89323906546639,-14.75,72.5702739332321,62.4468120258008,271.542286735629
72.5,3.89312906638892,-14.75,72.5632654652494,62.4409192358364,271.543499528267
73,3.89302131674557,-14.75,72.5562569972667,62.4350264458719,271.544722002607
73.5,3.89291392963133,-14.75,72.5492485292841,62.4291336559073,271.545946037295
74,3.89280673658787,-14.75,72.5422400613014,62.4232408659428,271.547170936211
74.5,3.89270156994519,-14.75,72.5352315933188,62.4173480759784,271.54840485902
75,3.89259640330252,-14.75,72.5282231253361,62.4114552860139,271.549638781828
75.5,3.89249183353794,-14.75,72.5212146573535,62.4055624960494,271.550875441605
76,3.89238857022342,-14.75,72.5142061893708,62.3996697060849,271.552118092073
76.5,3.8922853069089,-14.75,72.5071977213882,62.3937769161204,271.55336074254
77,3.89218293263894,-14.75,72.5001892534055,62.3878841261559,271.554607570224
77.5,3.8920813163334,-14.75,72.4931807854229,62.3819913361914,271.555857959239
78,3.89197970002786,-14.75,72.4861723174402,62.3760985462269,271.557108348254
78.5,3.89187918416092,-14.75,72.4791638494575,62.3702057562624,271.558364025516
79,3.89177900447856,-14.75,72.4721553814749,62.3643129662979,271.55962131834
79.5,3.8916788247962,-14.75,72.4651469134922,62.3584201763334,271.560878611164
80,3.89157989615795,-14.75,72.4581384455096,62.3525273863689,271.562142035529
80.5,3.89148097737225,-14.75,72.4511299775269,62.3466345964044,271.563405508182
81,3.8913823016496,-14.75,72.4441215095443,62.3407418064399,271.564670192002
81.5,3.89128449587953,-14.75,72.4371130415616,62.3348490164754,271.565939210743
82,3.89118669010946,-14.75,72.4301045735789,62.3289562265109,271.567208229483
82.5,3.89108932385289,-14.75,72.4230961055963,62.3230634365464,271.5684794746
83,3.89099250668942,-14.75,72.4160876376137,62.3171706465819,271.569753501172
83.5,3.89089568952595,-14.75,72.409079169631,62.3112778566174,271.571027527744
84,3.89079946491087,-14.75,72.4020707016483,62.3053850666529,271.572304588936
84.5,3.89070353112603,-14.75,72.3950622336657,62.2994922766884,271.573583139558
85,3.89060759734118,-14.75,72.388053765683,62.293599486724,271.574861690181
85.5,3.89051237516015,-14.75,72.3810452977004,62.2877066967595,271.576143911974
86,3.89041723471586,-14.75,72.3740368297177,62.281813906795,271.577426555447
86.5,3.89032222250217,-14.75,72.3670283617351,62.2759211168305,271.578709869179
87,3.89022812316288,-14.75,72.3600198937524,62.270028326866,271.57999795449
87.5,3.89013402382359,-14.75,72.3530114257698,62.2641355369015,271.5812860398
88,3.89003992448431,-14.75,72.3460029577871,62.258242746937,271.58257412511
88.5,3.88994582514502,-14.75,72.3389944898045,62.2523499569725,271.58386221042
89,3.88985172580573,-14.75,72.3319860218218,62.246457167008,271.585150295731
89.5,3.88975830865883,-14.75,72.3249775538391,62.2405643770435,271.586442002891
90,3.88966539458575,-14.75,72.3179690858565,62.234671587079,271.587736380938
90.5,3.88957248051267,-14.75,72.3109606178738,62.2287787971145,271.589030758985
91,3.88947956643959,-14.75,72.3039521498912,62.22288600715,271.590325137032
91.5,3.8893866523665,-14.75,72.2969436819085,62.2169932171855,271.591619515079
92,3.88929376605628,-14.75,72.2899352139259,62.211100427221,271.592914042905
92.5,3.88920184517501,-14.75,72.2829267459432,62.2052076372565,271.594213779164
93,3.88910992429375,-14.75,72.2759182779606,62.199314847292,271.595513515424
93.5,3.88901800341248,-14.75,72.2689098099779,62.1934220573275,271.596813251683
94,3.88892608253122,-14.75,72.2619013419953,62.187529267363,271.598112987942
94.5,3.88883416164996,-14.75,72.2548928740126,62.1816364773985,271.599412724201
95,3.88874264685061,-14.75,72.24788440603,62.175743687434,271.600714671207
95.5,3.88865157136422,-14.75,72.2408759380473,62.1698508974695,271.602019009874
96,3.88856049587783,-14.75,72.2338674700646,62.163958107505,271.60332334854
96.5,3.88846942039144,-14.75,72.226859002082,62.1580653175406,271.604627687206
97,3.88837834490505,-14.75,72.2198505340993,62.1521725275761,271.605932025872
97.5,3.88828726941866,-14.75,72.2128420661167,62.1462797376116,271.607236364538
98,3.88819687459589,-14.75,72.205833598134,62.1403869476471,271.608544417001
98.5,3.88810652885701,-14.75,72.1988251301514,62.1344941576826,271.609852737272
99,3.88801618311812,-14.75,72.1918166621687,62.1286013677181,271.611161057543
99.5,3.88792583737924,-14.75,72.184808194186,62.1227085777536,271.612469377814
100,3.88783549164035,-14.75,72.1777997262034,62.1168157877891,271.613777698085
100.5,3.88774539156675,-14.75,72.1707912582207,62.1109229978246,271.615087353257
101,3.8876556837021,-14.75,72.1637827902381,62.1050302078601,271.616399139623
101.5,3.88756597583745,-14.75,72.1567743222554,62.0991374178956,271.617710925989
102,3.88747626797279,-14.75,72.1497658542728,62.0932446279311,271.619022712354
102.5,3.88738656010814,-14.75,72.1427573862901,62.0873518379666,271.62033449872
103,3.88729685224349,-14.75,72.1357489183075,62.0814590480021,271.621646285086
103.5,3.88720761649875,-14.75,72.1287404503248,62.0755662580376,271.622960641691
104,3.88711847234327,-14.75,72.1217319823421,62.0696734680731,271.624275496913
104.5,3.88702932818779,-14.75,72.1147235143595,62.0637806781086,271.625590352134
105,3.88694018403231,-14.75,72.1077150463768,62.0578878881441,271.626905207355
105.5,3.88685103987683,-14.75,72.1007065783942,62.0519950981796,271.628220062576
106,3.88676204159076,-14.75,72.0936981104115,62.0461023082151,271.629535717754
106.5,3.88667340057795,-14.75,72.0866896424289,62.0402095182506,271.630853332238
107,3.88658475956514,-14.75,72.0796811744462,62.0343167282861,271.632170946722
107.5,3.88649611855233,-14.75,72.0726727064636,62.0284239383216,271.633488561206
108,3.88640747753952,-14.75,72.0656642384809,62.0225311483571,271.634806175691
108.5,3.8863188365267,-14.75,72.0586557704983,62.0166383583926,271.636123790175
109,3.88623053203219,-14.75,72.0516473025156,62.0107455684281,271.637443264309
109.5,3.88614234435913,-14.75,72.0446388345329,62.0048527784637,271.638763384015
110,3.88605415668606,-14.75,72.0376303665503,61.9989599884992,271.640083503722
110.5,3.88596596901299,-14.75,72.0306218985677,61.9930671985347,271.641403623428
111,3.88587778133993,-14.75,72.023613430585,61.9871744085702,271.642723743135
111.5,3.88578967390762,-14.75,72.0166049626023,61.9812816186057,271.644044306117
112,3.88570189835547,-14.75,72.0095964946197,61.9753888286412,271.645366702515
112.5,3.88561412280333,-14.75,72.002588026637,61.9694960386767,271.646689098912
113,3.88552634725118,-14.75,71.9955795586544,61.9636032487122,271.648011495309
113.5,3.88543857169904,-14.75,71.9885710906717,61.9577104587477,271.649333891707
114,3.88535079614689,-14.75,71.9815626226891,61.9518176687832,271.650656288104
114.5,3.88526337797103,-14.75,71.9745541547064,61.9459248788187,271.65198067161
115,3.88517615469709,-14.75,71.9675456867238,61.9400320888542,271.653306138824
115.5,3.88508893142316,-14.75,71.9605372187411,61.9341392988897,271.654631606038
116,3.88500170814923,-14.75,71.9535287507585,61.9282465089252,271.655957073251
116.5,3.88491448487529,-14.75,71.9465202827758,61.9223537189607,271.657282540465
117,3.88482726160136,-14.75,71.9395118147931,61.9164609289962,271.658608007679
117.5,3.88474003832743,-14.75,71.9325033468105,61.9105681390317,271.659933474893
118,3.88465281505349,-14.75,71.9254948788278,61.9046753490672,271.661258942107
118.5,3.88456559177956,-14.75,71.9184864108452,61.8987825591027,271.662584409321
119,3.88447836850563,-14.75,71.9114779428625,61.8928897691382,271.663909876534
119.5,3.88439114523169,-14.75,71.9044694748799,61.8869969791737,271.665235343748
120,3.88430428036033,-14.75,71.8974610068972,61.8811041892092,271.666562802855
120.5,3.88421770650756,-14.75,71.8904525389145,61.8752113992447,271.667891879356
121,3.88413113265478,-14.75,71.8834440709319,61.8693186092802,271.669220955857
121.5,3.88404455880201,-14.75,71.8764356029492,61.8634258193158,271.670550032358
122,3.88395798494924,-14.75,71.8694271349666,61.8575330293513,271.671879108859
122.5,3.88387141109647,-14.75,71.8624186669839,61.8516402393868,271.67320818536
123,3.88378483724369,-14.75,71.8554101990013,61.8457474494223,271.674537261861
123.5,3.88369826339092,-14.75,71.8484017310186,61.8398546594578,271.675866338362
124,3.88361168953815,-14.75,71.841393263036,61.8339618694933,271.677195414863
124.5,3.88352511568537,-14.75,71.8343847950533,61.8280690795288,271.678524491364
125,3.8834385418326,-14.75,71.8273763270707,61.8221762895643,271.679853567865
125.5,3.88335222780595,-14.75,71.820367859088,61.8162834995998,271.681184111013
126,3.88326622291705,-14.75,71.8133593911054,61.8103907096353,271.682516399158
126.5,3.88318021802815,-14.75,71.8063509231227,61.8044979196708,271.683848687303
127,3.88309421313926,-14.75,71.79934245514,61.7986051297063,271.685180975448
