time,voltage,curr_density,SOC,SOC_est,temp
0,3.78737384363379,-29.5,54,46.83274,281
0.5,3.78697309726949,-29.5,53.9859830640347,46.820954420071,281.00543715058
1,3.78660376036928,-29.5,53.9719661280694,46.809168840142,281.010686443835
1.5,3.78625209862495,-29.5,53.957949192104,46.797383260213,281.01597616508
2,3.78591408492935,-29.5,53.9439322561388,46.785597680284,281.021301799049
2.5,3.78558765242596,-29.5,53.9299153201734,46.773812100355,281.026660617693
3,3.78527000219424,-29.5,53.9158983842081,46.762026520426,281.032046101371
3.5,3.78496212046082,-29.5,53.9018814482428,46.7502409404971,281.037462665393
4,3.78466166444335,-29.5,53.8878645122775,46.7384553605681,281.042903859317
4.5,3.78436793753937,-29.5,53.8738475763122,46.7266697806391,281.048368070736
5,3.7840815051587,-29.5,53.8598306403469,46.7148842007101,281.053857994938
5.5,3.78380174269895,-29.5,53.8458137043816,46.7030986207811,281.059372156311
6,3.78352524401146,-29.5,53.8317967684163,46.6913130408521,281.064898313817
6.5,3.7832563908111,-29.5,53.817779832451,46.6795274609231,281.070453184616
7,3.78299103289599,-29.5,53.8037628964857,46.6677418809941,281.076021445039
7.5,3.78272924533356,-29.5,53.7897459605204,46.6559563010651,281.081603390154
8,3.78247370739612,-29.5,53.775729024555,46.6441707211361,281.087209677308
8.5,3.78222106697763,-29.5,53.7617120885897,46.6323851412071,281.092827377116
9,3.78197138667833,-29.5,53.7476951526244,46.6205995612781,281.098456739672
9.5,3.7817269523551,-29.5,53.7336782166591,46.6088139813492,281.10410691985
10,3.78148497287415,-29.5,53.7196612806938,46.5970284014202,281.109766854355
10.5,3.78124550122961,-29.5,53.7056443447285,46.5852428214912,281.115436754105
11,3.78101051523373,-29.5,53.6916274087632,46.5734572415622,281.121124418337
11.5,3.78077764423877,-29.5,53.6776104727979,46.5616716616332,281.126820426249
12,3.78054693375126,-29.5,53.6635935368326,46.5498860817042,281.132524956504
12.5,3.78032011678575,-29.5,53.6495766008673,46.5381005017752,281.138244726049
13,3.78009599208377,-29.5,53.635559664902,46.5263149218462,281.143974877516
13.5,3.77987463928916,-29.5,53.6215427289366,46.5145293419172,281.149715715244
14,3.77965328649455,-29.5,53.6075257929713,46.5027437619882,281.155456552973
14.5,3.77943511806552,-29.5,53.593508857006,46.4909581820592,281.161209262641
15,3.77922028311392,-29.5,53.5794919210407,46.4791726021303,281.166974400165
15.5,3.77900544816232,-29.5,53.5654749850754,46.4673870222013,281.17273953769
16,3.7787934474227,-29.5,53.5514580491101,46.4556014422723,281.178514698403
16.5,3.77858441179958,-29.5,53.5374411131448,46.4438158623433,281.184300345248
17,3.77837537617646,-29.5,53.5234241771795,46.4320302824143,281.190085992094
17.5,3.77816888231296,-29.5,53.5094072412142,46.4202447024853,281.195880066872
18,3.77796504598297,-29.5,53.4953903052489,46.4084591225563,281.201682953463
18.5,3.77776120965297,-29.5,53.4813733692836,46.3966735426273,281.207485840055
19,3.77755966724985,-29.5,53.4673564333183,46.3848879626983,281.213295753962
19.5,3.77736052179514,-29.5,53.4533394973529,46.3731023827693,281.219113010784
20,3.77716137634042,-29.5,53.4393225613876,46.3613168028403,281.224930267607
20.5,3.77696431277201,-29.5,53.4253056254223,46.3495312229113,281.230753269452
21,3.77676942326083,-29.5,53.411288689457,46.3377456429823,281.236582270669
21.5,3.77657453374965,-29.5,53.3972717534917,46.3259600630534,281.242411271886
22,3.7763815419151,-29.5,53.3832548175264,46.3141744831244,281.248244843088
22.5,3.77619053056312,-29.5,53.3692378815611,46.3023889031954,281.254083183689
23,3.77599951921114,-29.5,53.3552209455958,46.2906033232664,281.25992152429
23.5,3.77581024444118,-29.5,53.3412040096305,46.2788177433374,281.265763379572
24,3.77562278092358,-29.5,53.3271870736652,46.2670321634084,281.271608900662
24.5,3.77543531740599,-29.5,53.3131701376999,46.2552465834794,281.277454421752
25,3.7752494486825,-29.5,53.2991532017345,46.2434610035504,281.28330251618
25.5,3.7750652423116,-29.5,53.2851362657692,46.2316754236214,281.289153292958
26,3.77488103594071,-29.5,53.2711193298039,46.2198898436924,281.295004069735
26.5,3.77469829908395,-29.5,53.2571023938386,46.2081042637634,281.300856562785
27,3.77451709305786,-29.5,53.2430854578733,46.1963186838345,281.306710843721
27.5,3.77433588703177,-29.5,53.229068521908,46.1845331039055,281.312565124656
28,3.77415603890098,-29.5,53.2150515859427,46.1727475239765,281.318420336724
28.5,3.77397760446133,-29.5,53.2010346499774,46.1609619440475,281.324276518184
29,3.77379917002167,-29.5,53.1870177140121,46.1491763641185,281.330132699644
29.5,3.77362257804565,-29.5,53.1730007780468,46.1373907841895,281.33598887369
30,3.7734479030693,-29.5,53.1589838420815,46.1256052042605,281.341845040023
30.5,3.77327322809295,-29.5,53.1449669061161,46.1138196243315,281.347701206356
31,3.7730985531166,-29.5,53.1309499701508,46.1020340444025,281.353557372688
31.5,3.77292387814025,-29.5,53.1169330341855,46.0902484644735,281.359413539021
32,3.7727492031639,-29.5,53.1029160982202,46.0784628845445,281.365269705353
32.5,3.7725767061802,-29.5,53.0888991622549,46.0666773046156,281.371123803214
33,3.77240647253374,-29.5,53.0748822262896,46.0548917246866,281.376975751549
33.5,3.77223623888727,-29.5,53.0608652903243,46.0431061447576,281.382827699884
34,3.77206600524081,-29.5,53.046848354359,46.0313205648286,281.388679648219
34.5,3.77189577159434,-29.5,53.0328314183937,46.0195349848996,281.394531596554
35,3.77172553794788,-29.5,53.0188144824284,46.0077494049706,281.400383544889
35.5,3.77155719974423,-29.5,53.0047975464631,45.9959638250416,281.406231314496
36,3.77139082885285,-29.5,52.9907806104978,45.9841782451126,281.412074746931
36.5,3.77122445796147,-29.5,52.9767636745324,45.9723926651836,281.417918179365
37,3.7710580870701,-29.5,52.9627467385671,45.9606070852546,281.423761611799
37.5,3.77089171617872,-29.5,52.9487298026018,45.9488215053256,281.429605044234
38,3.77072534528735,-29.5,52.9347128666365,45.9370359253966,281.435448476668
38.5,3.77056063601494,-29.5,52.9206959306712,45.9252503454677,281.441285967923
39,3.77039764926074,-29.5,52.9066789947059,45.9134647655387,281.44711730025
39.5,3.77023466250654,-29.5,52.8926620587406,45.9016791856097,281.452948632577
40,3.77007167575235,-29.5,52.8786451227753,45.8898936056807,281.458779964905
40.5,3.76990868899815,-29.5,52.86462818681,45.8781080257517,281.464611297232
41,3.76974570224396,-29.5,52.8506112508446,45.8663224458227,281.470442629559
41.5,3.76958418093851,-29.5,52.8365943148793,45.8545368658937,281.476266551399
42,3.76942417693774,-29.5,52.822577378914,45.8427512859647,281.482082800526
42.5,3.76926417293696,-29.5,52.8085604429487,45.8309657060357,281.487899049653
43,3.76910416893619,-29.5,52.7945435069834,45.8191801261067,281.49371529878
43.5,3.76894416493542,-29.5,52.7805265710181,45.8073945461777,281.499531547907
44,3.76878416093465,-29.5,52.7665096350528,45.7956089662488,281.505347797034
44.5,3.76862545658012,-29.5,52.7524926990875,45.7838233863198,281.511155420993
45,3.7684680962189,-29.5,52.7384757631222,45.7720378063908,281.516954125471
45.5,3.76831073585769,-29.5,52.7244588271569,45.7602522264618,281.522752829948
46,3.76815337549647,-29.5,52.7104418911916,45.7484666465328,281.528551534426
46.5,3.76799601513526,-29.5,52.6964249552263,45.7366810666038,281.534350238904
47,3.76783865477404,-29.5,52.6824080192609,45.7248954866748,281.540148943382
47.5,3.76768203818201,-29.5,52.6683910832956,45.7131099067458,281.545941763893
48,3.76752618979994,-29.5,52.6543741473303,45.7013243268168,281.551728507085
48.5,3.76737118276808,-29.5,52.640357211365,45.6895387468878,281.557507725135
49,3.76721618252652,-29.5,52.6263402753997,45.6777531669588,281.563286882452
49.5,3.76706118228495,-29.5,52.6123233394344,45.6659675870298,281.569066039769
50,3.81411961366038,-3.30171371876603,52.5983147021952,45.6541889847528,281.574834936509
50.5,3.84706547841298,14.75,52.6053139953076,45.6600740603946,281.571701907408
51,3.84743535690714,14.75,52.6123224632903,45.6659668503591,281.568938462737
51.5,3.84778085683499,14.75,52.619330931273,45.6718596403236,281.566168188139
52,3.8481074181988,14.75,52.6263393992556,45.6777524302881,281.563396092088
52.5,3.84841862819424,14.75,52.6333478672383,45.6836452202526,281.560625578083
53,3.84871585613268,14.75,52.6403563352209,45.6895380102171,281.557859276314
53.5,3.84900083955511,14.75,52.6473648032036,45.6954308001816,281.555099179782
54,3.84927511008661,14.75,52.6543732711862,45.7013235901461,281.552346651153
54.5,3.84953967771246,14.75,52.6613817391689,45.7072163801106,281.549602796874
55,3.84979540635211,14.75,52.6683902071515,45.7131091700751,281.546868501539
55.5,3.85004304057241,14.75,52.6753986751342,45.7190019600396,281.544144471877
56,3.85028322440923,14.75,52.6824071431169,45.7248947500041,281.541431281797
56.5,3.85051652072254,14.75,52.6894156110995,45.7307875399686,281.538729396237
57,3.85074159924915,14.75,52.6964240790822,45.7366803299331,281.536042963769
57.5,3.85096393076114,14.75,52.7034325470648,45.7425731198976,281.533361886498
58,3.85117818541494,14.75,52.7104410150475,45.7484659098621,281.530698793327
58.5,3.85138938734803,14.75,52.7174494830301,45.7543586998266,281.528042967286
59,3.8515938331769,14.75,52.7244579510128,45.7602514897911,281.525404384999
59.5,3.85179554225891,14.75,52.7314664189954,45.7661442797555,281.522773491803
60,3.80021649223102,-14.2615071101345,52.7384666161605,45.772030115534,281.520161182393
60.5,3.79915033516057,-14.75,52.7314586632172,45.7661377586197,281.52155378793
61,3.79898240597681,-14.75,52.7244501952346,45.7602449686552,281.522733570328
61.5,3.79882834229782,-14.75,52.7174417272519,45.7543521786907,281.523927617573
62,3.79868396081172,-14.75,52.7104332592693,45.7484593887262,281.525133125347
62.5,3.7985474351685,-14.75,52.7034247912866,45.7425665987617,281.526348803553
63,3.79841763667875,-14.75,52.696416323304,45.7366738087972,281.527573852061
63.5,3.79829370479622,-14.75,52.6894078553213,45.7307810188327,281.528807566393
64,3.79817462007745,-14.75,52.6823993873387,45.7248882288682,281.530048812815
64.5,3.79805979757594,-14.75,52.675390919356,45.7189954389037,281.531296930572
65,3.79794875991615,-14.75,52.6683824513733,45.7131026489392,281.532551343659
65.5,3.79784110231072,-14.75,52.6613739833907,45.7072098589747,281.53381154118
66,3.79773647410386,-14.75,52.6543655154081,45.7013170690102,281.535077037922
66.5,3.79763457307412,-14.75,52.6473570474254,45.6954242790458,281.536347381281
67,3.79753605210907,-14.75,52.6403485794427,45.6895314890812,281.537623813358
67.5,3.79743829304998,-14.75,52.6333401114601,45.6836386991167,281.538901631312
68,3.79734376165829,-14.75,52.6263316434774,45.6777459091523,281.540185348995
68.5,3.7972503236817,-14.75,52.6193231754948,45.6718531191878,281.541471079863
69,3.7971589479184,-14.75,52.6123147075121,45.6659603292233,281.54276060766
69.5,3.79706910358048,-14.75,52.6053062395295,45.6600675392588,281.54405294618
70,3.79698043973486,-14.75,52.5982977715468,45.6541747492943,281.545347451332
70.5,3.79689361897344,-14.75,52.5912893035642,45.6482819593298,281.546645287012
71,3.79680731157551,-14.75,52.5842808355815,45.6423891693653,281.547944050237
71.5,3.79672306371596,-14.75,52.5772723675989,45.6364963794008,281.549246425992
72,3.79663921441559,-14.75,52.5702638996162,45.6306035894363,281.550549472422
72.5,3.79655678382488,-14.75,52.5632554316335,45.6247107994718,281.551854906186
73,3.7964750576431,-14.75,52.5562469636509,45.6188180095073,281.553161466093
73.5,3.79639423704569,-14.75,52.5492384956682,45.6129252195428,281.554469473763
74,3.79631435716199,-14.75,52.5422300276856,45.6070324295783,281.555778889614
74.5,3.79623497117397,-14.75,52.5352215597029,45.6011396396138,281.557089044792
75,3.79615670888602,-14.75,52.5282130917203,45.5952468496493,281.558400750212
75.5,3.79607871539117,-14.75,52.5212046237376,45.5893540596848,281.5597128134
76,3.79600177320613,-14.75,52.514196155755,45.5834612697203,281.561026198322
76.5,3.79592530393488,-14.75,52.5071876877723,45.5775684797558,281.562340073998
77,3.79584988558828,-14.75,52.5001792197896,45.5716756897913,281.563655040245
77.5,3.79577446724167,-14.75,52.493170751807,45.5657828998268,281.564970006492
78,3.79569904889507,-14.75,52.4861622838243,45.5598901098623,281.566284972739
78.5,3.79562492937698,-14.75,52.4791538158417,45.5539973198978,281.567600916055
79,3.79555125032887,-14.75,52.472145347859,45.5481045299333,281.568917190723
79.5,3.79547757128076,-14.75,52.4651368798764,45.5422117399688,281.570233465392
80,3.79540415954971,-14.75,52.4581284118937,45.5363189500044,281.57154982815
80.5,3.79533193993723,-14.75,52.4511199439111,45.5304261600399,281.57286658375
81,3.79525972032474,-14.75,52.4441114759284,45.5245333700754,281.574183339351
81.5,3.79518750071226,-14.75,52.4371030079458,45.5186405801109,281.575500094951
82,3.79511605047214,-14.75,52.4300945399631,45.5127477901464,281.576816712659
82.5,3.79504507263377,-14.75,52.4230860719804,45.5068550001819,281.578133245701
83,3.79497409479541,-14.75,52.4160776039978,45.5009622102174,281.579449778743
83.5,3.79490317685508,-14.75,52.4090691360151,45.4950694202529,281.580766268827
84,3.79483326890006,-14.75,52.4020606680325,45.4891766302884,281.582082034582
84.5,3.79476336094505,-14.75,52.3950522000498,45.4832838403239,281.583397800336
85,3.79469345299004,-14.75,52.3880437320672,45.4773910503594,281.58471356609
85.5,3.79462400395412,-14.75,52.3810352640845,45.4714982603949,281.586028740062
86,3.79455502801131,-14.75,52.3740267961019,45.4656054704304,281.587343303975
86.5,3.7944860520685,-14.75,52.3670183281192,45.4597126804659,281.588657867887
87,3.79441707612569,-14.75,52.3600098601366,45.4538198905014,281.589972431799
87.5,3.79434886153197,-14.75,52.3530013921539,45.4479271005369,281.591285524902
88,3.79428070529609,-14.75,52.3459929241713,45.4420343105724,281.592598505266
88.5,3.79421254906021,-14.75,52.3389844561886,45.4361415206079,281.59391148563
89,3.79414465845476,-14.75,52.3319759882059,45.4302487306434,281.595223764012
89.5,3.79407722954127,-14.75,52.3249675202233,45.424355940679,281.596534822277
90,3.79400980062778,-14.75,52.3179590522406,45.4184631507145,281.597845880543
90.5,3.7939423717143,-14.75,52.310950584258,45.41257036075,281.599156938808
91,3.79387546457653,-14.75,52.3039421162753,45.4066775707855,281.600466241454
91.5,3.79380868655866,-14.75,52.2969336482927,45.400784780821,281.601775109649
92,3.79374190854078,-14.75,52.28992518031,45.3948919908565,281.603083977845
92.5,3.79367527031868,-14.75,52.2829167123273,45.388999200892,281.60439227045
93,3.79360907958478,-14.75,52.2759082443447,45.3831064109275,281.605698720583
93.5,3.79354288885087,-14.75,52.268899776362,45.377213620963,281.607005170716
94,3.79347669811696,-14.75,52.2618913083794,45.3713208309985,281.608311620848
94.5,3.79341103242992,-14.75,52.2548828403967,45.365428041034,281.609615386673
95,3.79334562017959,-14.75,52.2478743724141,45.3595352510695,281.6109178568
95.5,3.79328020792926,-14.75,52.2408659044314,45.353642461105,281.612220326926
96,3.79321479567893,-14.75,52.2338574364488,45.3477496711405,281.613522797053
96.5,3.7931493834286,-14.75,52.2268489684661,45.341856881176,281.614825267179
97,3.79308397117826,-14.75,52.2198405004835,45.3359640912115,281.616127737306
97.5,3.79301855892793,-14.75,52.2128320325008,45.330071301247,281.617430207432
98,3.79295364038148,-14.75,52.2058235645182,45.3241785112825,281.618729495956
98.5,3.79288913025381,-14.75,52.1988150965355,45.318285721318,281.620026152485
99,3.79282462012615,-14.75,52.1918066285528,45.3123929313535,281.621322809014
99.5,3.79276010999848,-14.75,52.1847981605702,45.306500141389,281.622619465543
100,3.79269559987082,-14.75,52.1777896925875,45.3006073514245,281.623916122072
100.5,3.79263108974315,-14.75,52.1707812246049,45.29471456146,281.625212778601
101,3.79256657961549,-14.75,52.1637727566222,45.2888217714955,281.62650943513
101.5,3.79250239538564,-14.75,52.1567642886396,45.282928981531,281.627803453206
102,3.79243866103888,-14.75,52.1497558206569,45.2770361915665,281.629093829051
102.5,3.79237492669213,-14.75,52.1427473526743,45.271143401602,281.630384204896
103,3.79231119234538,-14.75,52.1357388846916,45.2652506116375,281.631674580741
103.5,3.79224745799863,-14.75,52.128730416709,45.259357821673,281.632964956586
104,3.79218372365187,-14.75,52.1217219487263,45.2534650317086,281.634255332431
104.5,3.79211998930512,-14.75,52.1147134807436,45.2475722417441,281.635545708276
105,3.79205645441832,-14.75,52.107705012761,45.2416794517796,281.636834151971
105.5,3.79199340102933,-14.75,52.1006965447783,45.2357866618151,281.63811793144
106,3.79193034764035,-14.75,52.0936880767957,45.2298938718506,281.63940171091
106.5,3.79186729425136,-14.75,52.086679608813,45.2240010818861,281.640685490379
107,3.79180424086237,-14.75,52.0796711408304,45.2181082919216,281.641969269849
107.5,3.79174118747338,-14.75,52.0726626728477,45.2122155019571,281.643253049318
108,3.7916781340844,-14.75,52.0656542048651,45.2063227119926,281.644536828788
108.5,3.79161518161574,-14.75,52.0586457368824,45.2004299220281,281.645819478195
109,3.79155273716444,-14.75,52.0516372688998,45.1945371320636,281.647096439041
109.5,3.79149029271314,-14.75,52.0446288009171,45.1886443420991,281.648373399888
110,3.79142784826184,-14.75,52.0376203329345,45.1827515521346,281.649650360735
110.5,3.79136540381054,-14.75,52.0306118649518,45.1768587621701,281.650927321581
111,3.79130295935924,-14.75,52.0236033969692,45.1709659722056,281.652204282428
111.5,3.79124051490794,-14.75,52.0165949289865,45.1650731822411,281.653481243274
112,3.79117809176664,-14.75,52.0095864610038,45.1591803922766,281.654757935183
112.5,3.79111620006541,-14.75,52.0025779930212,45.1532876023121,281.656027920164
113,3.79105430836419,-14.75,51.9955695250385,45.1473948123476,281.657297905146
113.5,3.79099241666296,-14.75,51.9885610570559,45.1415020223832,281.658567890127
114,3.79093052496174,-14.75,51.9815525890732,45.1356092324187,281.659837875109
114.5,3.79086863326051,-14.75,51.9745441210906,45.1297164424542,281.661107860091
115,3.79080674155929,-14.75,51.9675356531079,45.1238236524897,281.662377845072
115.5,3.79074484985806,-14.75,51.9605271851253,45.1179308625252,281.663647830054
116,3.79068342072761,-14.75,51.9535187171426,45.1120380725607,281.664911349954
116.5,3.79062203657981,-14.75,51.9465102491599,45.1061452825962,281.666174241158
117,3.79056065243202,-14.75,51.9395017811773,45.1002524926317,281.667437132363
117.5,3.79049926828422,-14.75,51.9324933131946,45.0943597026672,281.668700023567
118,3.79043788413642,-14.75,51.925484845212,45.0884669127027,281.669962914771
118.5,3.79037649998862,-14.75,51.9184763772293,45.0825741227382,281.671225805975
119,3.79031511584082,-14.75,51.9114679092467,45.0766813327737,281.672488697179
119.5,3.79025410096529,-14.75,51.904459441264,45.0707885428092,281.673745970881
120,3.79019318771126,-14.75,51.8974509732814,45.0648957528447,281.675001698679
120.5,3.79013227445723,-14.75,51.8904425052987,45.0590029628802,281.676257426478
121,3.79007136120319,-14.75,51.8834340373161,45.0531101729157,281.677513154276
121.5,3.79001044794916,-14.75,51.8764255693334,45.0472173829512,281.678768882075
122,3.78994953469512,-14.75,51.8694171013507,45.0413245929867,281.680024609874
122.5,3.78988862144109,-14.75,51.8624086333681,45.0354318030222,281.681280337672
123,3.78982799801641,-14.75,51.8554001653854,45.0295390130577,281.68253133921
123.5,3.78976752589264,-14.75,51.8483916974028,45.0236462230932,281.683779873478
124,3.78970705376887,-14.75,51.8413832294201,45.0177534331287,281.685028407745
124.5,3.78964658164511,-14.75,51.8343747614375,45.0118606431642,281.686276942012
125,3.78958610952134,-14.75,51.8273662934548,45.0059678531997,281.687525476279
125.5,3.78952563739757,-14.75,51.8203578254722,45.0000750632352,281.688774010546
126,3.78946516527381,-14.75,51.8133493574895,44.9941822732707,281.690022544813
126.5,3.78940491397699,-14.75,51.8063408895068,44.9882894833062,281.69126726852
127,3.78934485863662,-14.75,51.7993324215242,44.9823966933417,281.692508610827
