time,voltage,curr_density,SOC,SOC_est,temp
0,3.80106286659466,-29.5,56,48.51436,291
0.5,3.80069124453559,-29.5,55.9859830640347,48.502574420071,291.005289847544
1,3.80035162699771,-29.5,55.9719661280694,48.490788840142,291.010379332009
1.5,3.80003006809557,-29.5,55.9579491921041,48.479003260213,291.015499767044
2,3.79972288963686,-29.5,55.9439322561388,48.467217680284,291.020647959448
2.5,3.79942733365144,-29.5,55.9299153201735,48.455432100355,291.025820379411
3,3.79914143736981,-29.5,55.9158983842082,48.4436465204261,291.031013991659
3.5,3.798864871751,-29.5,55.9018814482428,48.4318609404971,291.036229135954
4,3.79859542616492,-29.5,55.8878645122775,48.4200753605681,291.04146132119
4.5,3.79833431240772,-29.5,55.8738475763122,48.4082897806391,291.046714116401
5,3.79807764091775,-29.5,55.8598306403469,48.3965042007101,291.051978139359
5.5,3.79782783038333,-29.5,55.8458137043816,48.3847186207811,291.057259893493
6,3.79758314463287,-29.5,55.8317967684163,48.3729330408521,291.062555181345
6.5,3.79734280041381,-29.5,55.817779832451,48.3611474609231,291.06786202346
7,3.79710654193679,-29.5,55.8037628964857,48.3493618809941,291.073179794806
7.5,3.79687457275724,-29.5,55.7897459605204,48.3375763010651,291.078509080878
8,3.79664704842334,-29.5,55.7757290245551,48.3257907211362,291.083850305053
8.5,3.79642274251605,-29.5,55.7617120885898,48.3140051412072,291.089200161752
9,3.79620150215575,-29.5,55.7476951526244,48.3022195612782,291.094558218355
9.5,3.79598318096034,-29.5,55.7336782166591,48.2904339813492,291.099924054042
10,3.79576853122773,-29.5,55.7196612806938,48.2786484014202,291.105299570577
10.5,3.7955565378652,-29.5,55.7056443447285,48.2668628214912,291.110681965643
11,3.79534766035679,-29.5,55.6916274087632,48.2550772415622,291.116072270376
11.5,3.79514140860368,-29.5,55.6776104727979,48.2432916616332,291.121469187091
12,3.79493515685057,-29.5,55.6635935368326,48.2315060817042,291.126866103806
12.5,3.79473399607574,-29.5,55.6495766008673,48.2197205017752,291.132275209464
13,3.79453354020217,-29.5,55.635559664902,48.2079349218462,291.137686002815
13.5,3.79433461000645,-29.5,55.6215427289367,48.1961493419172,291.143100189317
14,3.79413927223222,-29.5,55.6075257929714,48.1843637619882,291.148522365466
14.5,3.79394393445799,-29.5,55.593508857006,48.1725781820593,291.153944541615
15,3.79375186782228,-29.5,55.5794919210407,48.1607926021303,291.159373332292
15.5,3.79356108715511,-29.5,55.5654749850754,48.1490070222013,291.164804723311
16,3.79337086849812,-29.5,55.5514580491101,48.1372214422723,291.170237114579
16.5,3.79318417440356,-29.5,55.5374411131448,48.1254358623433,291.17567577876
17,3.792997480309,-29.5,55.5234241771795,48.1136502824143,291.181114442941
17.5,3.79281284097277,-29.5,55.5094072412142,48.1018647024853,291.186556190474
18,3.79262983425137,-29.5,55.4953903052489,48.0900791225563,291.192000387894
18.5,3.79244682752997,-29.5,55.4813733692836,48.0782935426273,291.197444585315
19,3.79226708687722,-29.5,55.4673564333183,48.0665079626983,291.202892676342
19.5,3.79208742325797,-29.5,55.453339497353,48.0547223827693,291.208340859203
20,3.79190896716573,-29.5,55.4393225613877,48.0429368028404,291.213790076783
20.5,3.7917323476821,-29.5,55.4253056254223,48.0311512229114,291.219240868134
21,3.79155572819847,-29.5,55.411288689457,48.0193656429824,291.224691659486
21.5,3.79138138098642,-29.5,55.3972717534917,48.0075800630534,291.230143561978
22,3.79120754482276,-29.5,55.3832548175264,47.9957944831244,291.235595714372
22.5,3.79103431185465,-29.5,55.3692378815611,47.9840089031954,291.241047924523
23,3.7908630304716,-29.5,55.3552209455958,47.9722233232664,291.246500321542
23.5,3.79069174908856,-29.5,55.3412040096305,47.9604377433374,291.251952718561
24,3.79052201072398,-29.5,55.3271870736652,47.9486521634084,291.257404604105
24.5,3.79035308214756,-29.5,55.3131701376999,47.9368665834794,291.262856221223
25,3.79018439386887,-29.5,55.2991532017345,47.9250810035504,291.268307616044
25.5,3.790018646524,-29.5,55.2851362657692,47.9132954236214,291.273756290235
26,3.78985289917913,-29.5,55.2711193298039,47.9015098436924,291.279204964426
26.5,3.78968715183425,-29.5,55.2571023938386,47.8897242637635,291.284653638617
27,3.78952140448938,-29.5,55.2430854578733,47.8779386838345,291.290102312809
27.5,3.78935565714451,-29.5,55.229068521908,47.8661531039055,291.295550987
28,3.78919333885202,-29.5,55.2150515859427,47.8543675239765,291.300993641578
28.5,3.78903133923848,-29.5,55.2010346499774,47.8425819440475,291.306435736724
29,3.78886933962494,-29.5,55.1870177140121,47.8307963641185,291.311877831869
29.5,3.78870734001141,-29.5,55.1730007780468,47.8190107841895,291.317319927015
30,3.78854534039787,-29.5,55.1589838420815,47.8072252042605,291.322762022161
30.5,3.7883857966066,-29.5,55.1449669061162,47.7954396243315,291.328197150533
31,3.78822705232939,-29.5,55.1309499701509,47.7836540444025,291.333630010813
31.5,3.78806830805218,-29.5,55.1169330341855,47.7718684644735,291.339062871092
32,3.78790956377497,-29.5,55.1029160982202,47.7600828845445,291.344495731371
32.5,3.78775081949775,-29.5,55.0888991622549,47.7482973046156,291.349928591651
33,3.78759377085668,-29.5,55.0748822262896,47.7365117246866,291.355354663904
33.5,3.78743788200117,-29.5,55.0608652903243,47.7247261447576,291.360776093265
34,3.78728199314567,-29.5,55.046848354359,47.7129405648286,291.366197522627
34.5,3.78712610429016,-29.5,55.0328314183937,47.7011549848996,291.371618951989
35,3.78697021543465,-29.5,55.0188144824284,47.6893694049706,291.37704038135
35.5,3.78681542126341,-29.5,55.0047975464631,47.6775838250416,291.382456064844
36,3.78666205901942,-29.5,54.9907806104978,47.6657982451126,291.387864232323
36.5,3.78650869677542,-29.5,54.9767636745324,47.6540126651836,291.393272399801
37,3.78635533453142,-29.5,54.9627467385671,47.6422270852546,291.39868056728
37.5,3.78620197228742,-29.5,54.9487298026018,47.6304415053256,291.404088734758
38,3.78604922471843,-29.5,54.9347128666365,47.6186559253967,291.409492865085
38.5,3.78589811656405,-29.5,54.9206959306712,47.6068703454677,291.414886227825
39,3.78574700840966,-29.5,54.9066789947059,47.5950847655387,291.420279590566
39.5,3.78559590025528,-29.5,54.8926620587406,47.5832991856097,291.425672953307
40,3.78544479210089,-29.5,54.8786451227753,47.5715136056807,291.431066316048
40.5,3.78529391109907,-29.5,54.86462818681,47.5597280257517,291.43645787354
41,3.78514482883734,-29.5,54.8506112508447,47.5479424458227,291.441835135913
41.5,3.78499574657561,-29.5,54.8365943148794,47.5361568658937,291.447212398286
42,3.78484666431388,-29.5,54.8225773789141,47.5243712859647,291.452589660659
42.5,3.78469758205215,-29.5,54.8085604429488,47.5125857060357,291.457966923032
43,3.78454849979042,-29.5,54.7945435069834,47.5008001261067,291.463344185405
43.5,3.78440116317472,-29.5,54.7805265710181,47.4890145461778,291.468705090469
44,3.78425391543016,-29.5,54.7665096350528,47.4772289662488,291.47406516278
44.5,3.78410666768561,-29.5,54.7524926990875,47.4654433863198,291.479425235091
45,3.78395941994105,-29.5,54.7384757631222,47.4536578063908,291.484785307402
45.5,3.7838121721965,-29.5,54.7244588271569,47.4418722264618,291.490145379713
46,3.78366624797918,-29.5,54.7104418911916,47.4300866465328,291.495491132015
46.5,3.78352067349388,-29.5,54.6964249552263,47.4183010666038,291.500833100364
47,3.78337509900858,-29.5,54.682408019261,47.4065154866748,291.506175068712
47.5,3.78322952452328,-29.5,54.6683910832956,47.3947299067458,291.51151703706
48,3.78308395003798,-29.5,54.6543741473303,47.3829443268168,291.516859005408
48.5,3.78293899349753,-29.5,54.640357211365,47.3711587468878,291.522193597458
49,3.78279449540925,-29.5,54.6263402753997,47.3593731669588,291.527522651127
49.5,3.78265037742054,-29.5,54.6123233394344,47.3475875870298,291.53284685351
50,3.78250644200402,-29.5,54.5983064034691,47.3358020071009,291.53816868399
50.5,3.85544471920017,14.75,54.6053078629838,47.3416889042754,291.535028362669
51,3.85578071960165,14.75,54.6123163309664,47.3475816942399,291.532265954461
51.5,3.85609249888472,14.75,54.6193247989491,47.3534744842044,291.529504918867
52,3.85638520807234,14.75,54.6263332669318,47.3593672741689,291.52674853713
52.5,3.85666133467555,14.75,54.6333417349144,47.3652600641334,291.523999457887
53,3.85692461411865,14.75,54.6403502028971,47.3711528540979,291.52125846904
53.5,3.85717618883721,14.75,54.6473586708797,47.3770456440624,291.518526803319
54,3.85741682342454,14.75,54.6543671388624,47.3829384340269,291.515805973409
54.5,3.85764841464101,14.75,54.661375606845,47.3888312239913,291.513095854679
55,3.85787164092559,14.75,54.6683840748277,47.3947240139559,291.510397067415
55.5,3.85808684891627,14.75,54.6753925428103,47.4006168039203,291.507710857228
56,3.85829561529407,14.75,54.682401010793,47.4065095938848,291.505035982445
56.5,3.85849841031073,14.75,54.6894094787756,47.4124023838493,291.502372595403
57,3.85869565907942,14.75,54.6964179467583,47.4182951738138,291.499720815522
57.5,3.85888758582315,14.75,54.7034264147409,47.4241879637783,291.497081125614
58,3.85907361117315,14.75,54.7104348827236,47.4300807537428,291.494456233588
58.5,3.85925532763536,14.75,54.7174433507062,47.4359735437073,291.491843154384
59,3.85943298329032,14.75,54.7244518186889,47.4418663336718,291.489241889096
59.5,3.85960680862006,14.75,54.7314602866716,47.4477591236363,291.48665242957
60,3.82527402525884,-6.46037524854155,54.7384627078186,47.453646829361,291.484076484518
60.5,3.8115982705991,-14.75,54.7314589605697,47.4477580086366,291.485472156683
61,3.81143408459327,-14.75,54.724450492587,47.4418652186721,291.486650720362
61.5,3.81128417275047,-14.75,54.7174420246043,47.4359724287076,291.487840507532
62,3.81114538051782,-14.75,54.7104335566217,47.4300796387431,291.489040491731
62.5,3.81101451158063,-14.75,54.703425088639,47.4241868487786,291.49024846925
63,3.81089124363513,-14.75,54.6964166206564,47.4182940588141,291.491464649736
63.5,3.81077355379572,-14.75,54.6894081526737,47.4124012688496,291.492687222952
64,3.81066137365631,-14.75,54.6823996846911,47.4065084788851,291.493916418359
64.5,3.81055333555365,-14.75,54.6753912167084,47.4006156889206,291.495150806178
65,3.81044974210185,-14.75,54.6683827487258,47.3947228989561,291.496390903501
65.5,3.810349259185,-14.75,54.6613742807431,47.3888301089916,291.497635107506
66,3.81025145110401,-14.75,54.6543658127605,47.3829373190271,291.4988828832
66.5,3.81015611734204,-14.75,54.6473573447778,47.3770445290626,291.500133999322
67,3.81006398563528,-14.75,54.6403488767951,47.3711517390981,291.501389479221
67.5,3.80997378849581,-14.75,54.6333404088125,47.3652589491336,291.502647589839
68,3.80988535359478,-14.75,54.6263319408298,47.3593661591691,291.503908080967
68.5,3.80979858541973,-14.75,54.6193234728472,47.3534733692046,291.505170807232
69,3.80971402663145,-14.75,54.6123150048645,47.3475805792401,291.506436426965
69.5,3.80963077305796,-14.75,54.6053065368819,47.3416877892756,291.507703709941
70,3.80954875977998,-14.75,54.5982980688992,47.3357949993111,291.508972547487
70.5,3.80946797230718,-14.75,54.5912896009166,47.3299022093466,291.510242889897
71,3.80938873457559,-14.75,54.5842811329339,47.3240094193822,291.511515039606
71.5,3.80931086857133,-14.75,54.5772726649513,47.3181166294177,291.512788659442
72,3.80923379130438,-14.75,54.5702641969686,47.3122238394532,291.51406312171
72.5,3.80915671403743,-14.75,54.5632557289859,47.3063310494887,291.515337583978
73,3.80908190795835,-14.75,54.5562472610033,47.3004382595242,291.516614118427
73.5,3.80900724146285,-14.75,54.5492387930206,47.2945454695597,291.517890780229
74,3.80893309785756,-14.75,54.542230325038,47.2886526795952,291.51916780266
74.5,3.80886045706277,-14.75,54.5352218570553,47.2827598896307,291.520445861554
75,3.80878781626798,-14.75,54.5282133890727,47.2768670996662,291.521723920447
75.5,3.80871616592849,-14.75,54.52120492109,47.2709743097017,291.523002400124
76,3.80864525019644,-14.75,54.5141964531073,47.2650815197372,291.52428119189
76.5,3.8085743344644,-14.75,54.5071879851247,47.2591887297727,291.525559983656
77,3.80850474188758,-14.75,54.500179517142,47.2532959398082,291.526838929355
77.5,3.8084353125393,-14.75,54.4931710491594,47.2474031498437,291.528117894043
78,3.8083661499055,-14.75,54.4861625811767,47.2415103598792,291.529396792696
78.5,3.80829801395566,-14.75,54.4791541131941,47.2356175699147,291.53067543716
79,3.80822987800582,-14.75,54.4721456452114,47.2297247799502,291.531954081623
79.5,3.80816233462554,-14.75,54.4651371772288,47.2238319899857,291.533232342881
80,3.80809533334433,-14.75,54.4581287092461,47.2179392000212,291.534510253574
80.5,3.80802833206312,-14.75,54.4511202412635,47.2120464100567,291.535788164267
81,3.80796217163628,-14.75,54.4441117732808,47.2061536200922,291.537065175979
81.5,3.80789617344019,-14.75,54.4371033052982,47.2002608301277,291.538342014246
82,3.8078303130985,-14.75,54.4300948373155,47.1943680401632,291.539618640665
82.5,3.80776520834218,-14.75,54.4230863693329,47.1884752501988,291.540894105939
83,3.80770010358587,-14.75,54.4160779013502,47.1825824602343,291.542169571213
83.5,3.80763537569739,-14.75,54.4090694333675,47.1766896702698,291.543444264234
84,3.8075710722347,-14.75,54.4020609653849,47.1707968803053,291.54471808755
84.5,3.807506768772,-14.75,54.3950524974022,47.1649040903408,291.545991910866
85,3.80744303379982,-14.75,54.3880440294196,47.1590113003763,291.547264258557
85.5,3.80737945328346,-14.75,54.3810355614369,47.1531185104118,291.548536205328
86,3.80731597061679,-14.75,54.3740270934543,47.1472257204473,291.549807823056
86.5,3.80725334584737,-14.75,54.3670186254716,47.1413329304828,291.551076555892
87,3.80719072107795,-14.75,54.360010157489,47.1354401405183,291.552345288728
87.5,3.80712809630853,-14.75,54.3530016895063,47.1295473505538,291.553614021564
88,3.8070654715391,-14.75,54.3459932215236,47.1236545605893,291.5548827544
88.5,3.80700284676968,-14.75,54.338984753541,47.1177617706248,291.556151487236
89,3.80694102960958,-14.75,54.3319762855583,47.1118689806603,291.557416689238
89.5,3.80687950447157,-14.75,54.3249678175757,47.1059761906958,291.558680614531
90,3.80681797933356,-14.75,54.317959349593,47.1000834007313,291.559944539825
90.5,3.80675645419555,-14.75,54.3109508816104,47.0941906107668,291.561208465118
91,3.80669492905754,-14.75,54.3039424136277,47.0882978208023,291.562472390412
91.5,3.80663374648636,-14.75,54.2969339456451,47.0824050308378,291.563734368196
92,3.80657315606566,-14.75,54.2899254776624,47.0765122408733,291.564992979576
92.5,3.80651256564495,-14.75,54.2829170096798,47.0706194509088,291.566251590956
93,3.80645197522425,-14.75,54.2759085416971,47.0647266609443,291.567510202336
93.5,3.80639138480354,-14.75,54.2689000737144,47.0588338709798,291.568768813715
94,3.80633079438284,-14.75,54.2618916057318,47.0529410810153,291.570027425095
94.5,3.80627101124034,-14.75,54.2548831377491,47.0470482910508,291.57128031409
95,3.8062112292713,-14.75,54.2478746697665,47.0411555010864,291.572533194767
95.5,3.80615144730227,-14.75,54.2408662017838,47.0352627111219,291.573786075444
96,3.80609166533323,-14.75,54.2338577338012,47.0293699211574,291.575038956121
96.5,3.80603188336419,-14.75,54.2268492658185,47.0234771311929,291.576291836798
97,3.80597254929253,-14.75,54.2198407978359,47.0175843412284,291.577540898564
97.5,3.80591347759012,-14.75,54.2128323298532,47.0116915512639,291.578787723288
98,3.8058544058877,-14.75,54.2058238618705,47.0057987612994,291.580034548013
98.5,3.80579533418529,-14.75,54.1988153938879,46.9999059713349,291.581281372738
99,3.80573626248287,-14.75,54.1918069259052,46.9940131813704,291.582528197462
99.5,3.80567735686849,-14.75,54.1847984579226,46.9881203914059,291.583773364929
100,3.80561891749546,-14.75,54.1777899899399,46.9822276014414,291.58501388015
100.5,3.80556047812243,-14.75,54.1707815219573,46.9763348114769,291.586254395371
101,3.80550203874941,-14.75,54.1637730539746,46.9704420215124,291.587494910592
101.5,3.80544359937638,-14.75,54.156764585992,46.9645492315479,291.588735425813
102,3.80538516000335,-14.75,54.1497561180093,46.9586564415834,291.589975941034
102.5,3.80532723022978,-14.75,54.1427476500267,46.9527636516189,291.591210634141
103,3.80526936042192,-14.75,54.135739182044,46.9468708616544,291.592444642147
103.5,3.80521149061406,-14.75,54.1287307140613,46.9409780716899,291.593678650153
104,3.8051536208062,-14.75,54.1217222460787,46.9350852817254,291.594912658159
104.5,3.80509575099834,-14.75,54.114713778096,46.9291924917609,291.596146666165
105,3.80503815445067,-14.75,54.1077053101134,46.9232997017964,291.59737716185
105.5,3.80498080338679,-14.75,54.1006968421307,46.9174069118319,291.598604502235
106,3.80492345232291,-14.75,54.0936883741481,46.9115141218674,291.59983184262
106.5,3.80486610125903,-14.75,54.0866799061654,46.9056213319029,291.601059183005
107,3.80480875019515,-14.75,54.0796714381828,46.8997285419384,291.60228652339
107.5,3.80475147495667,-14.75,54.0726629702001,46.8938357519739,291.603512784346
108,3.80469460129612,-14.75,54.0656545022175,46.8879429620095,291.604733328555
108.5,3.80463772763556,-14.75,54.0586460342348,46.882050172045,291.605953872764
109,3.80458085397501,-14.75,54.0516375662522,46.8761573820805,291.607174416973
109.5,3.80452398031446,-14.75,54.0446290982695,46.870264592116,291.608394961182
110,3.80446710665391,-14.75,54.0376206302869,46.8643718021515,291.609615505391
110.5,3.80441058374785,-14.75,54.0306121623042,46.858479012187,291.61083060256
111,3.80435415358359,-14.75,54.0236036943215,46.8525862222225,291.612044259495
111.5,3.80429772341932,-14.75,54.0165952263389,46.846693432258,291.613257916431
112,3.80424129325506,-14.75,54.0095867583562,46.8408006422935,291.614471573366
112.5,3.8041848630908,-14.75,54.0025782903736,46.834907852329,291.615685230302
113,3.80412869169253,-14.75,53.9955698223909,46.8290150623645,291.616894458003
113.5,3.80407287335365,-14.75,53.9885613544083,46.8231222724,291.618097642471
114,3.80401705501478,-14.75,53.9815528864256,46.8172294824355,291.619300826939
114.5,3.80396123667591,-14.75,53.974544418443,46.811336692471,291.620504011407
115,3.80390541833703,-14.75,53.9675359504603,46.8054439025065,291.621707195876
115.5,3.80384959999816,-14.75,53.9605274824776,46.799551112542,291.622910380344
116,3.80379378165929,-14.75,53.953519014495,46.7936583225775,291.624113564812
116.5,3.80373796332041,-14.75,53.9465105465123,46.787765532613,291.625316749281
117,3.80368214498154,-14.75,53.9395020785297,46.7818727426486,291.626519933749
117.5,3.80362632664267,-14.75,53.932493610547,46.7759799526841,291.627723118217
118,3.8035705083038,-14.75,53.9254851425644,46.7700871627196,291.628926302685
118.5,3.80351520285915,-14.75,53.9184766745817,46.7641943727551,291.63011979488
119,3.80346013103359,-14.75,53.9114682065991,46.7583015827906,291.631308872326
119.5,3.80340505920802,-14.75,53.9044597386164,46.7524087928261,291.63249794977
120,3.80334998738245,-14.75,53.8974512706338,46.7465160028616,291.633687027216
120.5,3.80329491555688,-14.75,53.8904428026511,46.7406232128971,291.634876104661
121,3.80323984373131,-14.75,53.8834343346684,46.7347304229326,291.636065182105
121.5,3.80318477190574,-14.75,53.8764258666858,46.7288376329681,291.63725425955
122,3.80312970008018,-14.75,53.8694173987031,46.7229448430036,291.638443336995
122.5,3.80307462825461,-14.75,53.8624089307205,46.7170520530391,291.63963241444
123,3.80301955642904,-14.75,53.8554004627378,46.7111592630746,291.640821491885
123.5,3.80296448460347,-14.75,53.8483919947552,46.7052664731101,291.64201056933
124,3.80291006339051,-14.75,53.8413835267725,46.6993736831456,291.643186124185
124.5,3.80285567558139,-14.75,53.8343750587899,46.6934808931811,291.644360984761
125,3.80280128777227,-14.75,53.8273665908072,46.6875881032166,291.645535845338
125.5,3.80274689996315,-14.75,53.8203581228245,46.6816953132521,291.646710705914
126,3.80269251215404,-14.75,53.8133496548419,46.6758025232876,291.64788556649
126.5,3.80263812434492,-14.75,53.8063411868592,46.6699097333231,291.649060427066
127,3.8025837365358,-14.75,53.7993327188766,46.6640169433586,291.650235287642
