time,voltage,curr_density,SOC,SOC_est,temp
0,3.63532247050462,-29.5,18,16.56358,321
0.5,3.63493914606391,-29.5,17.9859830640347,16.551794420071,321.008956953708
1,3.63457847734124,-29.5,17.9719661280694,16.540008840142,321.01757529049
1.5,3.63423134398614,-29.5,17.9579491921041,16.528223260213,321.026205744182
2,3.63389466294303,-29.5,17.9439322561388,16.516437680284,321.034845962765
2.5,3.63356623276558,-29.5,17.9299153201735,16.504652100355,321.043493879306
3,3.63324470501689,-29.5,17.9158983842081,16.492866520426,321.052148076119
3.5,3.63292936810525,-29.5,17.9018814482428,16.4810809404971,321.060807686826
4,3.63261889410001,-29.5,17.8878645122775,16.4692953605681,321.069471178039
4.5,3.63231293730311,-29.5,17.8738475763122,16.4575097806391,321.078137893533
5,3.63201100337362,-29.5,17.8598306403469,16.4457242007101,321.086807075438
5.5,3.63171268532137,-29.5,17.8458137043816,16.4339386207811,321.095478088468
6,3.63141764278696,-29.5,17.8317967684163,16.4221530408521,321.104150357962
6.5,3.63112558453352,-29.5,17.817779832451,16.4103674609231,321.112823328604
7,3.63083625718127,-29.5,17.8037628964857,16.3985818809941,321.121496491887
7.5,3.63054943914268,-29.5,17.7897459605204,16.3867963010651,321.130169402907
8,3.63026493623373,-29.5,17.7757290245551,16.3750107211361,321.138841660586
8.5,3.629982930066,-29.5,17.7617120885897,16.3632251412071,321.147512597637
9,3.62970294579009,-29.5,17.7476951526244,16.3514395612781,321.156182145791
9.5,3.62942391746499,-29.5,17.7336782166591,16.3396539813492,321.16485064175
10,3.62914763326341,-29.5,17.7196612806938,16.3278684014202,321.173516117308
10.5,3.62887186810957,-29.5,17.7056443447285,16.3160828214912,321.18218073053
11,3.62859879995329,-29.5,17.6916274087632,16.3042972415622,321.190840863015
11.5,3.62832591344392,-29.5,17.6776104727979,16.2925116616332,321.199500584028
12,3.62805566473418,-29.5,17.6635935368326,16.2807260817042,321.208154329826
12.5,3.62778541602443,-29.5,17.6495766008673,16.2689405017752,321.216808075624
13,3.62751757805436,-29.5,17.635559664902,16.2571549218462,321.225454766873
13.5,3.62724982116896,-29.5,17.6215427289366,16.2453693419172,321.234101220844
14,3.62698399397209,-29.5,17.6075257929713,16.2335837619882,321.242740634896
14.5,3.62671845386334,-29.5,17.593508857006,16.2217981820592,321.25137900159
15,3.62645444656255,-29.5,17.5794919210407,16.2100126021303,321.260010571474
15.5,3.62619088803868,-29.5,17.5654749850754,16.1982270222013,321.268640151383
16,3.62592853351738,-29.5,17.5514580491101,16.1864414422723,321.2772633592
16.5,3.62566675458939,-29.5,17.5374411131448,16.1746558623433,321.285883520732
17,3.62540590640011,-29.5,17.5234241771795,16.1628702824143,321.294497897273
17.5,3.62514573332139,-29.5,17.5094072412142,16.1510847024853,321.303108077676
18,3.62488626276423,-29.5,17.4953903052489,16.1392991225563,321.311713198636
18.5,3.62462754530834,-29.5,17.4813733692836,16.1275135426273,321.320312895888
19,3.62436957215708,-29.5,17.4673564333183,16.1157279626983,321.328906201171
19.5,3.6241127846547,-29.5,17.4533394973529,16.1039423827693,321.337489324291
20,3.62385599715231,-29.5,17.4393225613876,16.0921568028403,321.34607244741
20.5,3.62359920964992,-29.5,17.4253056254223,16.0803712229113,321.35465557053
21,3.62334284835971,-29.5,17.411288689457,16.0685856429824,321.363234221609
21.5,3.62308828388588,-29.5,17.3972717534917,16.0568000630534,321.371794019552
22,3.62283371941205,-29.5,17.3832548175264,16.0450144831244,321.380353817494
22.5,3.62257915493822,-29.5,17.3692378815611,16.0332289031954,321.388913615437
23,3.6223245904644,-29.5,17.3552209455958,16.0214433232664,321.397473413379
23.5,3.62207190453444,-29.5,17.3412040096305,16.0096577433374,321.40600872876
24,3.62181922276061,-29.5,17.3271870736652,15.9978721634084,321.414543989975
24.5,3.62156654098678,-29.5,17.3131701376999,15.9860865834794,321.42307925119
25,3.62131385921295,-29.5,17.2991532017346,15.9743010035504,321.431614512405
25.5,3.6210624753329,-29.5,17.2851362657692,15.9625154236214,321.440129244548
26,3.62081140813794,-29.5,17.2711193298039,15.9507298436925,321.448638967614
26.5,3.62056034094299,-29.5,17.2571023938386,15.9389442637635,321.45714869068
27,3.62030927374804,-29.5,17.2430854578733,15.9271586838345,321.465658413745
27.5,3.6200590610692,-29.5,17.229068521908,15.9153731039055,321.474152045057
28,3.6198093948913,-29.5,17.2150515859427,15.9035875239765,321.48263538498
28.5,3.61955972871341,-29.5,17.2010346499774,15.8918019440475,321.491118724902
29,3.61931006253551,-29.5,17.1870177140121,15.8800163641185,321.499602064825
29.5,3.61906090737086,-29.5,17.1730007780468,15.8682307841895,321.508074140984
30,3.6188124696135,-29.5,17.1589838420815,15.8564452042605,321.516530404039
30.5,3.61856403185613,-29.5,17.1449669061162,15.8446596243315,321.524986667094
31,3.61831559409877,-29.5,17.1309499701509,15.8328740444026,321.53344293015
31.5,3.61806739751106,-29.5,17.1169330341856,15.8210884644736,321.541893049027
32,3.61782004581651,-29.5,17.1029160982203,15.8093028845446,321.550321642916
32.5,3.61757269412196,-29.5,17.088899162255,15.7975173046156,321.558750236805
33,3.61732534242741,-29.5,17.0748822262896,15.7857317246866,321.567178830693
33.5,3.61707801794655,-29.5,17.0608652903243,15.7739461447576,321.575606632566
34,3.61683163384258,-29.5,17.046848354359,15.7621605648286,321.584007066074
34.5,3.6165852497386,-29.5,17.0328314183937,15.7503749848996,321.592407499582
35,3.61633886563463,-29.5,17.0188144824284,15.7385894049706,321.60080793309
35.5,3.61609248153066,-29.5,17.0047975464631,15.7268038250416,321.609208366598
36,3.61584682154833,-29.5,16.9907806104978,15.7150182451126,321.617584923285
36.5,3.61560130549615,-29.5,16.9767636745325,15.7032326651837,321.625956734092
37,3.61535578944397,-29.5,16.9627467385672,15.6914470852547,321.634328544899
37.5,3.61511027339178,-29.5,16.9487298026019,15.6796615053257,321.642700355706
38,3.6148652588813,-29.5,16.9347128666366,15.6678759253967,321.651053568268
38.5,3.61462052617186,-29.5,16.9206959306712,15.6560903454677,321.659396331041
39,3.61437579346241,-29.5,16.9066789947059,15.6443047655387,321.667739093814
39.5,3.61413106075297,-29.5,16.8926620587406,15.6325191856097,321.676081856587
40,3.61388664502768,-29.5,16.8786451227753,15.6207336056807,321.68441148458
40.5,3.61364262252771,-29.5,16.86462818681,15.6089480257517,321.692724818607
41,3.61339860002775,-29.5,16.8506112508447,15.5971624458227,321.701038152635
41.5,3.61315457752779,-29.5,16.8365943148794,15.5853768658937,321.709351486662
42,3.61291079253683,-29.5,16.8225773789141,15.5735912859647,321.717653511699
42.5,3.61266771107127,-29.5,16.8085604429488,15.5618057060358,321.725922038372
43,3.61242462960571,-29.5,16.7945435069835,15.5500201261068,321.734190565045
43.5,3.61218154814015,-29.5,16.7805265710182,15.5382345461778,321.742459091718
44,3.61193846667459,-29.5,16.7665096350529,15.5264489662488,321.750727618391
44.5,3.61169538520904,-29.5,16.7524926990875,15.5146633863198,321.758996145065
45,3.61145230374348,-29.5,16.7384757631222,15.5028778063908,321.767264671738
45.5,3.61120922227792,-29.5,16.7244588271569,15.4910922264618,321.775533198411
46,3.61096614081236,-29.5,16.7104418911916,15.4793066465328,321.783801725084
46.5,3.61072366794257,-29.5,16.6964249552263,15.4675210666038,321.792037610056
47,3.61048129044291,-29.5,16.682408019261,15.4557354866748,321.800268379902
47.5,3.610239202843,-29.5,16.6683910832957,15.4439499067459,321.80848156814
48,3.60999720303446,-29.5,16.6543741473304,15.4321643268169,321.816689432078
48.5,3.60975520322591,-29.5,16.6403572113651,15.4203787468879,321.824897296015
49,3.60951320341737,-29.5,16.6263402753998,15.4085931669589,321.833105159953
49.5,3.60927137456311,-29.5,16.6123233394345,15.3968075870299,321.84130202308
50,3.60902971799782,-29.5,16.5983064034692,15.3850220071009,321.849487680781
50.5,3.68339729031714,14.75,16.6053078629838,15.3909089042754,321.843429122752
51,3.68370105242737,14.75,16.6123163309665,15.3968016942399,321.837914023905
51.5,3.68398830204474,14.75,16.6193247989491,15.4026944842044,321.832411995501
52,3.68426238631664,14.75,16.6263332669318,15.4085872741689,321.826925090388
52.5,3.68452661495729,14.75,16.6333417349144,15.4144800641334,321.821452910496
53,3.68478142893208,14.75,16.6403502028971,15.4203728540979,321.815998208293
53.5,3.68502912691719,14.75,16.6473586708798,15.4262656440624,321.810559281952
54,3.68526978638429,14.75,16.6543671388624,15.4321584340269,321.805138453169
54.5,3.6855039120163,14.75,16.6613756068451,15.4380512239914,321.799737179875
55,3.68573347326241,14.75,16.6683840748277,15.4439440139559,321.794351433403
55.5,3.68595849434563,14.75,16.6753925428104,15.4498368039204,321.788982334628
56,3.68617932401988,14.75,16.682401010793,15.4557295938849,321.783629959871
56.5,3.68639531392168,14.75,16.6894094787757,15.4616223838494,321.778299128935
57,3.68660767859415,14.75,16.6964179467583,15.4675151738139,321.772986202452
57.5,3.68681685198916,14.75,16.703426414741,15.4734079637784,321.767690135403
58,3.68702301955281,14.75,16.7104348827236,15.4793007537429,321.762410927382
58.5,3.68722635354152,14.75,16.7174433507063,15.4851935437074,321.757148571867
59,3.68742625878186,14.75,16.724451818689,15.4910863336719,321.751908314229
59.5,3.68762367766761,14.75,16.7314602866716,15.4969791236364,321.746685363605
60,3.66055077474037,-1.80611876162496,16.7384640346715,15.5028679449922,321.741479258386
60.5,3.63904884359007,-14.75,16.7314669703891,15.4969847433728,321.744273401867
61,3.63888397971724,-14.75,16.7244585024064,15.4910919534083,321.746737160558
61.5,3.63872945680863,-14.75,16.7174500344238,15.4851991634438,321.749204004883
62,3.63858302155943,-14.75,16.7104415664411,15.4793063734793,321.751673176751
62.5,3.63844284943813,-14.75,16.7034330984585,15.4734135835148,321.754143775965
63,3.63830712571017,-14.75,16.6964246304758,15.4675207935504,321.756615059884
63.5,3.63817595472833,-14.75,16.6894161624931,15.4616280035859,321.759086663613
64,3.63804815335173,-14.75,16.6824076945105,15.4557352136214,321.76155808379
64.5,3.63792319767946,-14.75,16.6753992265278,15.4498424236569,321.76402899191
65,3.63780118777258,-14.75,16.6683907585452,15.4439496336924,321.766498911763
65.5,3.63768145640267,-14.75,16.6613822905625,15.4380568437279,321.768967693975
66,3.63756366224471,-14.75,16.6543738225799,15.4321640537634,321.771435027979
66.5,3.6374472330152,-14.75,16.6473653545972,15.4262712637989,321.773901225044
67,3.63733295993703,-14.75,16.6403568866146,15.4203784738344,321.776365067934
67.5,3.63721999908865,-14.75,16.6333484186319,15.4144856838699,321.778826960709
68,3.63710803275417,-14.75,16.6263399506493,15.4085928939054,321.781287297973
68.5,3.63699771308136,-14.75,16.6193314826666,15.4027001039409,321.783744488442
69,3.63688831797182,-14.75,16.6123230146839,15.3968073139764,321.786199484561
69.5,3.63677967602294,-14.75,16.6053145467013,15.3909145240119,321.788652645473
70,3.63667233349681,-14.75,16.5983060787186,15.3850217340474,321.791102023638
70.5,3.63656565584217,-14.75,16.591297610736,15.3791289440829,321.793549057994
71,3.63645956126629,-14.75,16.5842891427533,15.3732361541184,321.795994017045
71.5,3.63635451088288,-14.75,16.5772806747707,15.3673433641539,321.798434605025
72,3.63624994613527,-14.75,16.570272206788,15.3614505741894,321.800872810542
72.5,3.63614584803058,-14.75,16.5632637388054,15.3555577842249,321.803308726773
73,3.63604296587813,-14.75,16.5562552708227,15.3496649942604,321.805737422013
73.5,3.63594009351946,-14.75,16.54924680284,15.3437722042959,321.808166059093
74,3.6358372211608,-14.75,16.5422383348574,15.3378794143314,321.810594696172
74.5,3.63573564806077,-14.75,16.5352298668747,15.331986624367,321.813013618371
75,3.63563413463826,-14.75,16.5282213988921,15.3260938344025,321.815432094347
75.5,3.63553262121575,-14.75,16.5212129309094,15.320201044438,321.817850570322
76,3.63543211476558,-14.75,16.5142044629268,15.3143082544735,321.820259277717
76.5,3.63533169568754,-14.75,16.5071959949441,15.308415464509,321.822667137519
77,3.6352312766095,-14.75,16.5001875269615,15.3025226745445,321.825074997321
77.5,3.63513164411179,-14.75,16.4931790589788,15.29662988458,321.827473182417
78,3.63503211459353,-14.75,16.4861705909962,15.2907370946155,321.829870100897
78.5,3.63493258507528,-14.75,16.4791621230135,15.284844304651,321.832267019377
79,3.63483367513507,-14.75,16.4721536550309,15.2789515146865,321.834654468584
79.5,3.63473487598373,-14.75,16.4651451870482,15.273058724722,321.837040224559
80,3.63463607683238,-14.75,16.4581367190655,15.2671659347575,321.839425980534
80.5,3.63453776858803,-14.75,16.4511282510829,15.261273144793,321.8418025294
81,3.63443957371481,-14.75,16.4441197831002,15.2553803548285,321.844176951957
81.5,3.63434137884158,-14.75,16.4371113151176,15.249487564864,321.846551374514
82,3.63424357392079,-14.75,16.4301028471349,15.2435947748995,321.84891687463
82.5,3.63414588126521,-14.75,16.4230943791523,15.237701984935,321.851279806024
83,3.63404818860963,-14.75,16.4160859111696,15.2318091949705,321.853642737418
83.5,3.63395080659356,-14.75,16.409077443187,15.225916405006,321.85599705502
84,3.63385353341714,-14.75,16.4020689752043,15.2200236150415,321.858348354583
84.5,3.63375626024071,-14.75,16.3950605072217,15.214130825077,321.860699654146
85,3.63365923559497,-14.75,16.388052039239,15.2082380351125,321.863042681805
85.5,3.63356231513875,-14.75,16.3810435712563,15.202345245148,321.8653822417
86,3.63346539468253,-14.75,16.3740351032737,15.1964524551835,321.867721801595
86.5,3.63336867385862,-14.75,16.367026635291,15.190559665219,321.870053473904
87,3.6332720519463,-14.75,16.3600181673084,15.1846668752546,321.872381238159
87.5,3.63317543003399,-14.75,16.3530096993257,15.1787740852901,321.874709002414
88,3.63307903781172,-14.75,16.3460012313431,15.1728812953256,321.87702552537
88.5,3.63298277889549,-14.75,16.3389927633604,15.1669885053611,321.879335524172
89,3.63288651997925,-14.75,16.3319842953778,15.1610957153966,321.881645522974
89.5,3.63279026106302,-14.75,16.3249758273951,15.1552029254321,321.883955521776
90,3.63269400214679,-14.75,16.3179673594125,15.1493101354676,321.886265520578
90.5,3.63259774323055,-14.75,16.3109588914298,15.1434173455031,321.88857551938
91,3.63250169509805,-14.75,16.3039504234471,15.1375245555386,321.890872244833
91.5,3.63240581196925,-14.75,16.2969419554645,15.1316317655741,321.893158579772
92,3.63230992884046,-14.75,16.2899334874818,15.1257389756096,321.895444914711
92.5,3.63221404571166,-14.75,16.2829250194992,15.1198461856451,321.897731249649
93,3.63211816258286,-14.75,16.2759165515165,15.1139533956806,321.900017584588
93.5,3.63202227945406,-14.75,16.2689080835339,15.1080606057161,321.902303919526
94,3.63192653321125,-14.75,16.2618996155512,15.1021678157516,321.90457869097
94.5,3.63183092997712,-14.75,16.2548911475686,15.0962750257871,321.906841381703
95,3.63173532674299,-14.75,16.2478826795859,15.0903822358226,321.909104072435
95.5,3.63163972350886,-14.75,16.2408742116032,15.0844894458581,321.911366763167
96,3.63154412027472,-14.75,16.2338657436206,15.0785966558936,321.913629453899
96.5,3.63144851704059,-14.75,16.2268572756379,15.0727038659291,321.915892144632
97,3.63135300222467,-14.75,16.2198488076553,15.0668110759646,321.918144983828
97.5,3.63125761091644,-14.75,16.2128403396726,15.0609182860001,321.920384061827
98,3.6311622196082,-14.75,16.20583187169,15.0550254960356,321.922623139827
98.5,3.63106682829996,-14.75,16.1988234037073,15.0491327060711,321.924862217826
99,3.63097143699173,-14.75,16.1918149357247,15.0432399161066,321.927101295826
99.5,3.63087604568349,-14.75,16.184806467742,15.0373471261421,321.929340373825
100,3.63078071062185,-14.75,16.1777979997593,15.0314543361776,321.931571328426
100.5,3.63068548217576,-14.75,16.1707895317767,15.0255615462132,321.933786885106
101,3.63059025372967,-14.75,16.163781063794,15.0196687562487,321.936002441787
101.5,3.63049502528359,-14.75,16.1567725958114,15.0137759662842,321.938217998468
102,3.6303997968375,-14.75,16.1497641278287,15.0078831763197,321.940433555148
102.5,3.63030456839141,-14.75,16.1427556598461,15.0019903863552,321.942649111829
103,3.63020937437264,-14.75,16.1357471918634,14.9960975963907,321.944858278867
103.5,3.63011427179715,-14.75,16.1287387238808,14.9902048064262,321.947050474214
104,3.63001916922166,-14.75,16.1217302558981,14.9843120164617,321.949242669561
104.5,3.62992406664617,-14.75,16.1147217879154,14.9784192264972,321.951434864908
105,3.62982896407068,-14.75,16.1077133199328,14.9725264365327,321.953627060255
105.5,3.62973386149519,-14.75,16.1007048519501,14.9666336465682,321.955819255603
106,3.62963877835836,-14.75,16.0936963839675,14.9607408566037,321.958006776737
106.5,3.62954377217421,-14.75,16.0866879159848,14.9548480666392,321.960175793862
107,3.62944876599005,-14.75,16.0796794480022,14.9489552766747,321.962344810987
107.5,3.6293537598059,-14.75,16.0726709800195,14.9430624867102,321.964513828111
108,3.62925875362174,-14.75,16.0656625120369,14.9371696967457,321.966682845236
108.5,3.62916374743759,-14.75,16.0586540440542,14.9312769067812,321.968851862361
109,3.62906875061988,-14.75,16.0516455760716,14.9253841168167,321.971017893171
109.5,3.62897381658835,-14.75,16.0446371080889,14.9194913268522,321.97316390579
110,3.62887888255682,-14.75,16.0376286401062,14.9135985368877,321.975309918409
110.5,3.62878394852529,-14.75,16.0306201721236,14.9077057469232,321.977455931028
111,3.62868901449376,-14.75,16.0236117041409,14.9018129569587,321.979601943647
111.5,3.62859408046224,-14.75,16.0166032361583,14.8959201669942,321.981747956266
112,3.62849914943651,-14.75,16.0095947681756,14.8900273770297,321.983892645061
112.5,3.62840426726064,-14.75,16.002586300193,14.8841345870653,321.986015819227
113,3.62830938508478,-14.75,15.9955778322103,14.8782417971008,321.988138993393
113.5,3.62821450290891,-14.75,15.9885693642277,14.8723490071363,321.990262167559
114,3.62811962073305,-14.75,15.981560896245,14.8664562171718,321.992385341725
114.5,3.62802473855719,-14.75,15.9745524282624,14.8605634272073,321.99450851589
115,3.62792985638132,-14.75,15.9675439602797,14.8546706372428,321.996631690056
115.5,3.6278350080985,-14.75,15.960535492297,14.8487778472783,321.99873252396
116,3.62774016029291,-14.75,15.9535270243144,14.8428850573138,322.000833043302
116.5,3.62764531248731,-14.75,15.9465185563317,14.8369922673493,322.002933562645
117,3.62755046468172,-14.75,15.9395100883491,14.8310994773848,322.005034081988
117.5,3.62745561687613,-14.75,15.9325016203664,14.8252066874203,322.007134601331
118,3.62736076907054,-14.75,15.9254931523838,14.8193138974558,322.009235120674
118.5,3.62726594056939,-14.75,15.9184846844011,14.8134211074913,322.011304917146
119,3.6271711138785,-14.75,15.9114762164185,14.8075283175268,322.013371832605
119.5,3.62707628718761,-14.75,15.9044677484358,14.8016355275623,322.015438748063
120,3.62698146049672,-14.75,15.8974592804532,14.7957427375978,322.017505663521
120.5,3.62688663380583,-14.75,15.8904508124705,14.7898499476333,322.019572578979
121,3.62679180711494,-14.75,15.8834423444878,14.7839571576688,322.021639494438
121.5,3.62669698042405,-14.75,15.8764338765052,14.7780643677043,322.023706409896
122,3.62660215373316,-14.75,15.8694254085225,14.7721715777398,322.025773325354
122.5,3.62650732704227,-14.75,15.8624169405399,14.7662787877753,322.027840240813
123,3.62641250035138,-14.75,15.8554084725572,14.7603859978108,322.029907156271
123.5,3.62631767366049,-14.75,15.8484000045746,14.7544932078463,322.031974071729
124,3.6262228469696,-14.75,15.8413915365919,14.7486004178819,322.034040987187
124.5,3.62612800633358,-14.75,15.8343830686093,14.7427076279174,322.036073917274
125,3.62603316154543,-14.75,15.8273746006266,14.7368148379529,322.038096728316
125.5,3.62593831675728,-14.75,15.820366132644,14.7309220479884,322.040119539357
126,3.62584347196913,-14.75,15.8133576646613,14.7250292580239,322.042142350398
126.5,3.62574862718097,-14.75,15.8063491966787,14.7191364680594,322.04416516144
127,3.62565378239282,-14.75,15.799340728696,14.7132436780949,322.046187972481
