time,voltage,curr_density,SOC,SOC_est,temp
0,3.6912002333998,-29.5,32,28.33492,265
0.5,3.69074643611191,-29.5,31.9859830640347,28.323134420071,265.006947216025
1,3.69031125857818,-29.5,31.9719661280694,28.311348840142,265.013696910031
1.5,3.68988911617679,-29.5,31.9579491921041,28.299563260213,265.020527420872
2,3.68947710732608,-29.5,31.9439322561388,28.287777680284,265.027429899094
2.5,3.68907289983755,-29.5,31.9299153201735,28.275992100355,265.034394361621
3,3.68867557235075,-29.5,31.9158983842081,28.2642065204261,265.04141880607
3.5,3.68828384676171,-29.5,31.9018814482428,28.2524209404971,265.048495631792
4,3.68789783300078,-29.5,31.8878645122775,28.2406353605681,265.055629530819
4.5,3.68751638167436,-29.5,31.8738475763122,28.2288497806391,265.062811599172
5,3.68713963395438,-29.5,31.8598306403469,28.2170642007101,265.070045355217
5.5,3.6867671227859,-29.5,31.8458137043816,28.2052786207811,265.077327663521
6,3.68639824277484,-29.5,31.8317967684163,28.1934930408521,265.08465274414
6.5,3.68603284546165,-29.5,31.817779832451,28.1817074609231,265.092019754845
7,3.68567079521928,-29.5,31.8037628964857,28.1699218809941,265.099427905001
7.5,3.68531300756448,-29.5,31.7897459605204,28.1581363010651,265.10688974101
8,3.68495831251456,-29.5,31.7757290245551,28.1463507211361,265.114391412788
8.5,3.68460655790204,-29.5,31.7617120885897,28.1345651412071,265.121931429116
9,3.68425766236273,-29.5,31.7476951526244,28.1227795612782,265.129509165013
9.5,3.68391171983309,-29.5,31.7336782166591,28.1109939813492,265.137126343193
10,3.68356923475356,-29.5,31.7196612806938,28.0992084014202,265.144790386153
10.5,3.68322931992548,-29.5,31.7056443447285,28.0874228214912,265.152489716158
11,3.68289259920036,-29.5,31.6916274087632,28.0756372415622,265.160233388933
11.5,3.68255876784945,-29.5,31.6776104727979,28.0638516616332,265.168017386451
12,3.68222493649853,-29.5,31.6635935368326,28.0520660817042,265.175801383969
12.5,3.68189668609097,-29.5,31.6495766008673,28.0402805017752,265.183664573991
13,3.68156913026059,-29.5,31.635559664902,28.0284949218462,265.191537619928
13.5,3.68124367228422,-29.5,31.6215427289367,28.0167093419172,265.199440953067
14,3.68092198084591,-29.5,31.6075257929713,28.0049237619882,265.207398664583
14.5,3.68060028940759,-29.5,31.593508857006,27.9931381820592,265.215356376098
15,3.68028313703388,-29.5,31.5794919210407,27.9813526021303,265.223380574414
15.5,3.67996693993113,-29.5,31.5654749850754,27.9695670222013,265.23141876524
16,3.67965226349583,-29.5,31.5514580491101,27.9577814422723,265.239479483088
16.5,3.67934122919307,-29.5,31.5374411131448,27.9459958623433,265.247594155141
17,3.67903019489031,-29.5,31.5234241771795,27.9342102824143,265.255708827194
17.5,3.67872286690354,-29.5,31.5094072412142,27.9224247024853,265.263878916347
18,3.67841669046959,-29.5,31.4953903052489,27.9106391225563,265.272066223599
18.5,3.67811157330022,-29.5,31.4813733692836,27.8988535426273,265.280269486433
19,3.67780997531411,-29.5,31.4673564333183,27.8870679626983,265.288525758325
19.5,3.67750837732801,-29.5,31.4533394973529,27.8752823827693,265.296782030216
20,3.67720980239894,-29.5,31.4393225613876,27.8634968028403,265.305084111213
20.5,3.67691252450533,-29.5,31.4253056254223,27.8517112229113,265.3134058465
21,3.67661593307699,-29.5,31.411288689457,27.8399256429824,265.321738024726
21.5,3.67632273704398,-29.5,31.3972717534917,27.8281400630534,265.330121855835
22,3.67602954101097,-29.5,31.3832548175264,27.8163544831244,265.338505686945
22.5,3.67573880270809,-29.5,31.3692378815611,27.8045689031954,265.346927003078
23,3.67544946749484,-29.5,31.3552209455958,27.7927833232664,265.355369718978
23.5,3.67516051613014,-29.5,31.3412040096305,27.7809977433374,265.36381829725
24,3.67487483695462,-29.5,31.3271870736652,27.7692121634084,265.372316850417
24.5,3.67458915777911,-29.5,31.3131701376999,27.7574265834794,265.380815403583
25,3.67430640737388,-29.5,31.2991532017345,27.7456410035504,265.389358655575
25.5,3.67402583594101,-29.5,31.2851362657692,27.7338554236214,265.397935162993
26,3.67374526450813,-29.5,31.2711193298039,27.7220698436924,265.406511670411
26.5,3.67346469307526,-29.5,31.2571023938386,27.7102842637635,265.415088177829
27,3.67318412164239,-29.5,31.2430854578733,27.6984986838345,265.423664685247
27.5,3.67290673474201,-29.5,31.229068521908,27.6867131039055,265.432289653326
28,3.67263240487287,-29.5,31.2150515859427,27.6749275239765,265.440961141816
28.5,3.67235807500374,-29.5,31.2010346499774,27.6631419440475,265.449632630306
29,3.67208374513461,-29.5,31.1870177140121,27.6513563641185,265.458304118795
29.5,3.67180941526547,-29.5,31.1730007780468,27.6395707841895,265.466975607285
30,3.67153760198075,-29.5,31.1589838420815,27.6277852042605,265.475685092532
30.5,3.67126890168155,-29.5,31.1449669061161,27.6159996243315,265.484441579324
31,3.67100020138236,-29.5,31.1309499701508,27.6042140444025,265.493198066117
31.5,3.67073150108316,-29.5,31.1169330341855,27.5924284644735,265.501954552909
32,3.67046280078397,-29.5,31.1029160982202,27.5806428845445,265.510711039701
32.5,3.67019605415026,-29.5,31.0888991622549,27.5688573046156,265.519496658264
33,3.66993244357184,-29.5,31.0748822262896,27.5570717246866,265.528329039611
33.5,3.66966883299342,-29.5,31.0608652903243,27.5452861447576,265.537161420959
34,3.669405222415,-29.5,31.046848354359,27.5335005648286,265.545993802307
34.5,3.66914161183658,-29.5,31.0328314183937,27.5217149848996,265.554826183655
35,3.66887947773489,-29.5,31.0188144824284,27.5099294049706,265.563680237926
35.5,3.66862047163465,-29.5,31.0047975464631,27.4981438250416,265.572580207542
36,3.66836146553441,-29.5,30.9907806104978,27.4863582451126,265.581480177157
36.5,3.66810245943417,-29.5,30.9767636745324,27.4745726651836,265.590380146772
37,3.66784345333393,-29.5,30.9627467385671,27.4627870852546,265.599280116388
37.5,3.66758552119299,-29.5,30.9487298026018,27.4510015053257,265.608195532999
38,3.66733068618508,-29.5,30.9347128666365,27.4392159253967,265.617155496363
38.5,3.66707585117717,-29.5,30.9206959306712,27.4274303454677,265.626115459728
39,3.66682101616927,-29.5,30.9066789947059,27.4156447655387,265.635075423092
39.5,3.66656618116136,-29.5,30.8926620587406,27.4038591856097,265.644035386457
40,3.66631207967633,-29.5,30.8786451227753,27.3920736056807,265.653005652997
40.5,3.66606102002262,-29.5,30.86462818681,27.3802880257517,265.662018645569
41,3.66580996036891,-29.5,30.8506112508447,27.3685024458227,265.671031638141
41.5,3.66555890071521,-29.5,30.8365943148793,27.3567168658937,265.680044630714
42,3.6653078410615,-29.5,30.822577378914,27.3449312859647,265.689057623286
42.5,3.66505722971451,-29.5,30.8085604429487,27.3331457060357,265.698076731778
43,3.66480958942569,-29.5,30.7945435069834,27.3213601261067,265.70713637224
43.5,3.66456194913688,-29.5,30.7805265710181,27.3095745461777,265.716196012702
44,3.66431430884806,-29.5,30.7665096350528,27.2977889662487,265.725255653164
44.5,3.66406666855924,-29.5,30.7524926990875,27.2860033863198,265.734315293626
45,3.66381923803079,-29.5,30.7384757631222,27.2742178063908,265.743377706093
45.5,3.66357468590936,-29.5,30.7244588271569,27.2624322264618,265.752478157009
46,3.66333013378792,-29.5,30.7104418911916,27.2506466465328,265.761578607926
46.5,3.66308558166649,-29.5,30.6964249552263,27.2388610666038,265.770679058843
47,3.66284102954506,-29.5,30.682408019261,27.2270754866748,265.77977950976
47.5,3.66259648591623,-29.5,30.6683910832956,27.2152899067458,265.788880069541
48,3.66235372563087,-29.5,30.6543741473303,27.2035043268168,265.798003489505
48.5,3.66211170872952,-29.5,30.640357211365,27.1917187468878,265.807136268958
49,3.66186995445336,-29.5,30.6263402753997,27.1799331669588,265.816272354962
49.5,3.66162835282634,-29.5,30.6123233394344,27.1681475870298,265.825410334436
50,3.66138760542873,-29.5,30.5983064034691,27.1563620071009,265.834558860314
50.5,3.76519127130604,14.75,30.6053078629838,27.1622489042754,265.830903398669
51,3.7656062801837,14.75,30.6123163309664,27.1681416942399,265.827609998419
51.5,3.76599752314462,14.75,30.6193247989491,27.1740344842044,265.824235404428
52,3.76637270623907,14.75,30.6263332669317,27.1799272741689,265.82080409283
52.5,3.76673430985948,14.75,30.6333417349144,27.1858200641334,265.817325105592
53,3.76708515347655,14.75,30.640350202897,27.1917128540979,265.813809779473
53.5,3.76742644283522,14.75,30.6473586708797,27.1976056440624,265.810264294342
54,3.76775966274882,14.75,30.6543671388624,27.2034984340269,265.806695661963
54.5,3.76808462488723,14.75,30.661375606845,27.2093912239913,265.803106126926
55,3.76840262645233,14.75,30.6683840748277,27.2152840139558,265.799501642607
55.5,3.76871412963305,14.75,30.6753925428103,27.2211768039203,265.79588557308
56,3.7690195211,14.75,30.682401010793,27.2270695938848,265.792260900302
56.5,3.76931913748655,14.75,30.6894094787756,27.2329623838493,265.788630280485
57,3.76961327583868,14.75,30.6964179467583,27.2388551738138,265.784996076182
57.5,3.76990219764001,14.75,30.7034264147409,27.2447479637783,265.781360394668
58,3.77018591938784,14.75,30.7104348827236,27.2506407537428,265.777725251617
58.5,3.77046318681401,14.75,30.7174433507062,27.2565335437073,265.774093648813
59,3.77073838488027,14.75,30.7244518186889,27.2624263336718,265.770464316717
59.5,3.77100773110274,14.75,30.7314602866715,27.2683191236363,265.766841405847
60,3.72613503461847,-5.13969763040808,30.7384630843074,27.2742071459165,265.763225114277
60.5,3.70413903411642,-14.75,30.7314652645743,27.2683233091067,265.765252773823
61,3.70397127162472,-14.75,30.7244567965916,27.2624305191422,265.767049312563
61.5,3.70381490045198,-14.75,30.717448328609,27.2565377291777,265.768880074309
62,3.70366704453254,-14.75,30.7104398606263,27.2506449392132,265.770739229525
62.5,3.70352503284749,-14.75,30.7034313926437,27.2447521492487,265.772619663945
63,3.70338774827875,-14.75,30.696422924661,27.2388593592842,265.77451840244
63.5,3.70325470110754,-14.75,30.6894144566784,27.2329665693198,265.776434523226
64,3.70312490501239,-14.75,30.6824059886957,27.2270737793552,265.778364662802
64.5,3.70299832085245,-14.75,30.6753975207131,27.2211809893908,265.780309229317
65,3.70287389502105,-14.75,30.6683890527304,27.2152881994263,265.782263830906
65.5,3.70275168962367,-14.75,30.6613805847478,27.2093954094618,265.784228977621
66,3.70263149788151,-14.75,30.6543721167651,27.2035026194973,265.786203914446
66.5,3.70251332376739,-14.75,30.6473636487825,27.1976098295328,265.788188889665
67,3.70239698945337,-14.75,30.6403551807998,27.1917170395683,265.790183184103
67.5,3.70228217113878,-14.75,30.6333467128171,27.1858242496038,265.792185263154
68,3.70216876963534,-14.75,30.6263382448345,27.1799314596393,265.794194688522
68.5,3.70205669473557,-14.75,30.6193297768518,27.1740386696748,265.796211057105
69,3.70194586442448,-14.75,30.6123213088692,27.1681458797103,265.798233995759
69.5,3.70183622006789,-14.75,30.6053128408865,27.1622530897458,265.800263235584
70,3.70172789074382,-14.75,30.5983043729039,27.1563602997813,265.802299504765
70.5,3.70162103623259,-14.75,30.5912959049212,27.1504675098168,265.804343689257
71,3.70151453819051,-14.75,30.5842874369386,27.1445747198523,265.806389786999
71.5,3.70140897832641,-14.75,30.5772789689559,27.1386819298878,265.80844093307
72,3.7013046399053,-14.75,30.5702705009732,27.1327891399233,265.810498651718
72.5,3.70120042507371,-14.75,30.5632620329906,27.1268963499588,265.812557032802
73,3.70109798337617,-14.75,30.5562535650079,27.1210035599943,265.814624917838
73.5,3.70099554167864,-14.75,30.5492450970253,27.1151107700298,265.816692802875
74,3.70089426675855,-14.75,30.5422366290426,27.1092179800653,265.818766883405
74.5,3.70079350170372,-14.75,30.53522816106,27.1033251901008,265.820843671278
75,3.70069322258547,-14.75,30.5282196930773,27.0974324001363,265.822923000987
75.5,3.70059394520094,-14.75,30.5212112250947,27.0915396101718,265.825007570563
76,3.70049466781641,-14.75,30.514202757112,27.0856468202073,265.827092140138
76.5,3.70039665845546,-14.75,30.5071942891294,27.0797540302429,265.829183208295
77,3.70029870553767,-14.75,30.5001858211467,27.0738612402784,265.831274565721
77.5,3.70020144877729,-14.75,30.493177353164,27.0679684503139,265.833369398396
78,3.70010467954737,-14.75,30.4861688851814,27.0620756603494,265.835466664843
78.5,3.70000814274652,-14.75,30.4791604171987,27.0561828703849,265.83756505365
79,3.69991243547945,-14.75,30.4721519492161,27.0502900804204,265.83966744813
79.5,3.69981672821237,-14.75,30.4651434812334,27.0443972904559,265.84176984261
80,3.69972219901551,-14.75,30.4581350132508,27.0385045004914,265.843877637193
80.5,3.69962787835123,-14.75,30.4511265452681,27.0326117105269,265.845986387659
81,3.69953355768695,-14.75,30.4441180772855,27.0267189205624,265.848095138124
81.5,3.69943923702266,-14.75,30.4371096093028,27.0208261305979,265.85020388859
82,3.6993450900752,-14.75,30.4301011413202,27.0149333406334,265.852313366974
82.5,3.69925233312865,-14.75,30.4230926733375,27.0090405506689,265.854428669827
83,3.69915957618211,-14.75,30.4160842053548,27.0031477607044,265.85654397268
83.5,3.69906681923556,-14.75,30.4090757373722,26.9972549707399,265.858659275532
84,3.69897406228902,-14.75,30.4020672693895,26.9913621807754,265.860774578385
84.5,3.69888178397459,-14.75,30.3950588014069,26.9854693908109,265.862891609015
85,3.69879031168657,-14.75,30.3880503334242,26.9795766008464,265.865011549256
85.5,3.69869883939856,-14.75,30.3810418654416,26.9736838108819,265.867131489498
86,3.69860736711054,-14.75,30.3740333974589,26.9677910209174,265.86925142974
86.5,3.69851589482252,-14.75,30.3670249294763,26.9618982309529,265.871371369982
87,3.69842509658407,-14.75,30.3600164614936,26.9560054409884,265.873493266423
87.5,3.69833468736757,-14.75,30.3530079935109,26.9501126510239,265.875616291868
88,3.69824427815106,-14.75,30.3459995255283,26.9442198610594,265.877739317314
88.5,3.69815386893455,-14.75,30.3389910575456,26.938327071095,265.879862342759
89,3.69806345971804,-14.75,30.331982589563,26.9324342811305,265.881985368204
89.5,3.69797384473661,-14.75,30.3249741215803,26.926541491166,265.884110026701
90,3.69788432239679,-14.75,30.3179656535977,26.9206487012015,265.886234875681
90.5,3.69779480005698,-14.75,30.310957185615,26.914755911237,265.888359724661
91,3.69770527771716,-14.75,30.3039487176324,26.9088631212725,265.890484573641
91.5,3.6976158722112,-14.75,30.2969402496497,26.902970331308,265.892609549232
92,3.69752709391811,-14.75,30.2899317816671,26.8970775413435,265.894735204518
92.5,3.69743831562501,-14.75,30.2829233136844,26.891184751379,265.896860859805
93,3.69734953733192,-14.75,30.2759148457018,26.8852919614145,265.898986515091
93.5,3.69726075903882,-14.75,30.2689063777191,26.87939917145,265.901112170378
94,3.69717224285932,-14.75,30.2618979097364,26.8735063814855,265.903237814542
94.5,3.69708409087096,-14.75,30.2548894417538,26.867613591521,265.905363443252
95,3.6969959388826,-14.75,30.2478809737711,26.8617208015565,265.907489071963
95.5,3.69690778689423,-14.75,30.2408725057885,26.855828011592,265.909614700673
96,3.69681963490587,-14.75,30.2338640378058,26.8499352216275,265.911740329383
96.5,3.69673184205941,-14.75,30.2268555698232,26.844042431663,265.913865466585
97,3.69664421822769,-14.75,30.2198471018405,26.8381496416985,265.915990372479
97.5,3.69655659439597,-14.75,30.2128386338579,26.832256851734,265.918115278373
98,3.69646897056424,-14.75,30.2058301658752,26.8263640617695,265.920240184268
98.5,3.69638134673252,-14.75,30.1988216978926,26.820471271805,265.922365090162
99,3.69629414319049,-14.75,30.1918132299099,26.8145784818405,265.924488770124
99.5,3.69620696577524,-14.75,30.1848047619272,26.8086856918761,265.926612373876
100,3.69611978835998,-14.75,30.1777962939446,26.8027929019116,265.928735977629
100.5,3.69603261094473,-14.75,30.1707878259619,26.7969001119471,265.930859581382
101,3.69594551019431,-14.75,30.1637793579793,26.7910073219826,265.93298282152
101.5,3.69585871051721,-14.75,30.1567708899966,26.7851145320181,265.935104633691
102,3.69577191084011,-14.75,30.149762422014,26.7792217420536,265.937226445863
102.5,3.69568511116302,-14.75,30.1427539540313,26.7733289520891,265.939348258034
103,3.69559831148592,-14.75,30.1357454860487,26.7674361621246,265.941470070205
103.5,3.69551166017501,-14.75,30.128737018066,26.7615433721601,265.943590871672
104,3.69542517994917,-14.75,30.1217285500834,26.7556505821956,265.945710507669
104.5,3.69533869972334,-14.75,30.1147200821007,26.7497577922311,265.947830143665
105,3.6952522194975,-14.75,30.1077116141181,26.7438650022666,265.949949779661
105.5,3.69516573927166,-14.75,30.1007031461354,26.7379722123021,265.952069415657
106,3.69507953715487,-14.75,30.0936946781527,26.7320794223376,265.954186225491
106.5,3.69499344003947,-14.75,30.0866862101701,26.7261866323731,265.956301968294
107,3.69490734292408,-14.75,30.0796777421874,26.7202938424086,265.958417711098
107.5,3.69482124580868,-14.75,30.0726692742048,26.7144010524441,265.960533453901
108,3.69473514869328,-14.75,30.0656608062221,26.7085082624796,265.962649196704
108.5,3.69464905157789,-14.75,30.0586523382395,26.7026154725151,265.964764939507
109,3.69456295446249,-14.75,30.0516438702568,26.6967226825506,265.96688068231
109.5,3.69447685734709,-14.75,30.0446354022742,26.6908298925861,265.968996425113
110,3.6943907602317,-14.75,30.0376269342915,26.6849371026216,265.971112167916
110.5,3.69430475768882,-14.75,30.0306184663089,26.6790443126571,265.973226442138
111,3.69421904055011,-14.75,30.0236099983262,26.6731515226927,265.975336284425
111.5,3.69413332341141,-14.75,30.0166015303435,26.6672587327282,265.977446126713
112,3.6940476062727,-14.75,30.0095930623609,26.6613659427637,265.979555969
112.5,3.693961889134,-14.75,30.0025845943782,26.6554731527992,265.981665811288
113,3.69387617199529,-14.75,29.9955761263956,26.6495803628347,265.983775653575
113.5,3.69379045485658,-14.75,29.9885676584129,26.6436875728702,265.985885495862
114,3.69370473771788,-14.75,29.9815591904303,26.6377947829057,265.98799533815
114.5,3.69361902057917,-14.75,29.9745507224476,26.6319019929412,265.990105180437
115,3.69353330344047,-14.75,29.967542254465,26.6260092029767,265.992215022725
115.5,3.69344778368815,-14.75,29.9605337864823,26.6201164130122,265.994319820619
116,3.69336232227877,-14.75,29.9535253184996,26.6142236230477,265.996423127505
116.5,3.69327686086939,-14.75,29.946516850517,26.6083308330832,265.998526434391
117,3.69319139946001,-14.75,29.9395083825343,26.6024380431187,266.000629741277
117.5,3.69310593805063,-14.75,29.9324999145517,26.5965452531542,266.002733048163
118,3.69302047664125,-14.75,29.925491446569,26.5906524631897,266.004836355049
118.5,3.69293501523187,-14.75,29.9184829785864,26.5847596732252,266.006939661935
119,3.69284955382249,-14.75,29.9114745106037,26.5788668832607,266.009042968822
119.5,3.69276409241311,-14.75,29.9044660426211,26.5729740932962,266.011146275708
120,3.69267867805418,-14.75,29.8974575746384,26.5670813033317,266.013247533224
120.5,3.69259337623358,-14.75,29.8904491066558,26.5611885133672,266.015343888923
121,3.69250807441298,-14.75,29.8834406386731,26.5552957234027,266.017440244622
121.5,3.69242277259238,-14.75,29.8764321706904,26.5494029334382,266.019536600321
122,3.69233747077179,-14.75,29.8694237027078,26.5435101434737,266.02163295602
122.5,3.69225216895119,-14.75,29.8624152347251,26.5376173535092,266.023729311719
123,3.69216686713059,-14.75,29.8554067667425,26.5317245635447,266.025825667418
123.5,3.69208156530999,-14.75,29.8483982987598,26.5258317735803,266.027922023117
124,3.69199626348939,-14.75,29.8413898307772,26.5199389836158,266.030018378816
124.5,3.69191096166879,-14.75,29.8343813627945,26.5140461936513,266.032114734516
125,3.69182572823183,-14.75,29.8273728948119,26.5081534036868,266.034205232075
125.5,3.69174051003135,-14.75,29.8203644268292,26.5022606137223,266.03629442439
126,3.69165529183086,-14.75,29.8133559588466,26.4963678237578,266.038383616705
126.5,3.69157007363038,-14.75,29.8063474908639,26.4904750337933,266.040472809019
127,3.69148485542989,-14.75,29.7993390228812,26.4845822438288,266.042562001334
