time,voltage,curr_density,SOC,SOC_est,temp
0,3.67118983284295,-29.5,23,20.76763,311
0.5,3.67084525547638,-29.5,22.9859830640347,20.755844420071,311.007846337007
1,3.67052668301638,-29.5,22.9719661280694,20.744058840142,311.015364376352
1.5,3.67022342756872,-29.5,22.9579491921041,20.732273260213,311.022900794276
2,3.66993172239044,-29.5,22.9439322561388,20.720487680284,311.030452436942
2.5,3.6696495204199,-29.5,22.9299153201735,20.708702100355,311.038017430531
3,3.66937526152631,-29.5,22.9158983842082,20.6969165204261,311.045594046974
3.5,3.66910846224078,-29.5,22.9018814482428,20.6851309404971,311.053181928823
4,3.66884684167072,-29.5,22.8878645122775,20.6733453605681,311.060777755856
4.5,3.66859044944969,-29.5,22.8738475763122,20.6615597806391,311.068381632135
5,3.66833871425769,-29.5,22.8598306403469,20.6497742007101,311.075992626335
5.5,3.66809116594299,-29.5,22.8458137043816,20.6379886207811,311.08360993008
6,3.66784741165248,-29.5,22.8317967684163,20.6262030408521,311.091232838862
6.5,3.66760711582136,-29.5,22.817779832451,20.6144174609231,311.098860697438
7,3.66736998739545,-29.5,22.8037628964857,20.6026318809941,311.10649290555
7.5,3.66713577234518,-29.5,22.7897459605204,20.5908463010651,311.11412892324
8,3.66690482712214,-29.5,22.7757290245551,20.5790607211361,311.121768897563
8.5,3.66667587190824,-29.5,22.7617120885897,20.5672751412071,311.12941118721
9,3.66644898983808,-29.5,22.7476951526244,20.5554895612781,311.137055529988
9.5,3.66622454539019,-29.5,22.7336782166591,20.5437039813492,311.144702286857
10,3.66600183270693,-29.5,22.7196612806938,20.5319184014202,311.152350330655
10.5,3.66578131908411,-29.5,22.7056443447285,20.5201328214912,311.160000008641
11,3.66556226147835,-29.5,22.6916274087632,20.5083472415622,311.167650357499
11.5,3.66534520205267,-29.5,22.6776104727979,20.4965616616332,311.175301627034
12,3.66512937403881,-29.5,22.6635935368326,20.4847760817042,311.182953074976
12.5,3.66491537415693,-29.5,22.6495766008673,20.4729905017752,311.190604787778
13,3.66470242042072,-29.5,22.635559664902,20.4612049218462,311.198256276522
13.5,3.6644911488325,-29.5,22.6215427289367,20.4494193419172,311.205907404993
14,3.66428076809774,-29.5,22.6075257929714,20.4376337619882,311.213557978194
14.5,3.66407194119413,-29.5,22.593508857006,20.4258481820592,311.221207582888
15,3.66386387399309,-29.5,22.5794919210407,20.4140626021302,311.228856373432
15.5,3.66365724679685,-29.5,22.5654749850754,20.4022770222013,311.236503620765
16,3.66345126820803,-29.5,22.5514580491101,20.3904914422723,311.244149863773
16.5,3.66324662861551,-29.5,22.5374411131448,20.3787058623433,311.251794033434
17,3.66304254320876,-29.5,22.5234241771795,20.3669202824143,311.259437052802
17.5,3.66283970709347,-29.5,22.5094072412142,20.3551347024853,311.267077479081
18,3.66263756064041,-29.5,22.4953903052489,20.3433491225563,311.274715956038
18.5,3.66243711712196,-29.5,22.4813733692836,20.3315635426273,311.282349619666
19,3.66223667360352,-29.5,22.4673564333183,20.3197779626983,311.289983283294
19.5,3.66203623008507,-29.5,22.4533394973529,20.3079923827693,311.297616946922
20,3.66183647589212,-29.5,22.4393225613876,20.2962068028403,311.305247912766
20.5,3.66163878779652,-29.5,22.4253056254223,20.2844212229113,311.312870792611
21,3.66144109970092,-29.5,22.411288689457,20.2726356429824,311.320493672456
21.5,3.66124341160533,-29.5,22.3972717534917,20.2608500630534,311.328116552301
22,3.66104621731253,-29.5,22.3832548175264,20.2490644831244,311.335736776521
22.5,3.66085085745872,-29.5,22.3692378815611,20.2372789031954,311.3433471353
23,3.66065549760491,-29.5,22.3552209455958,20.2254933232664,311.35095749408
23.5,3.6604601377511,-29.5,22.3412040096305,20.2137077433374,311.35856785286
24,3.66026512386584,-29.5,22.3271870736652,20.2019221634084,311.366175782898
24.5,3.66007175216949,-29.5,22.3131701376999,20.1901365834794,311.373772184567
25,3.65987838047314,-29.5,22.2991532017345,20.1783510035504,311.381368586236
25.5,3.65968500877679,-29.5,22.2851362657692,20.1665654236214,311.388964987906
26,3.65949187028453,-29.5,22.2711193298039,20.1547798436924,311.396559331479
26.5,3.65930021412213,-29.5,22.2571023938386,20.1429942637634,311.404140593045
27,3.65910855795972,-29.5,22.2430854578733,20.1312086838345,311.411721854612
27.5,3.65891690179732,-29.5,22.229068521908,20.1194231039055,311.419303116178
28,3.65872539187889,-29.5,22.2150515859427,20.1076375239765,311.426882794771
28.5,3.65853523015484,-29.5,22.2010346499774,20.0958519440475,311.434447880249
29,3.6583450684308,-29.5,22.1870177140121,20.0840663641185,311.442012965726
29.5,3.65815490670676,-29.5,22.1730007780468,20.0722807841895,311.449578051204
30,3.65796482340448,-29.5,22.1589838420815,20.0604952042605,311.457142116708
30.5,3.65777597350018,-29.5,22.1449669061162,20.0487096243315,311.464690140332
31,3.65758712359587,-29.5,22.1309499701508,20.0369240444025,311.472238163957
31.5,3.65739827369156,-29.5,22.1169330341855,20.0251384644735,311.479786187582
32,3.65720944897677,-29.5,22.1029160982202,20.0133528845445,311.48733382478
32.5,3.65702175971999,-29.5,22.0888991622549,20.0015673046156,311.494864043171
33,3.6568340704632,-29.5,22.0748822262896,19.9897817246866,311.502394261562
33.5,3.65664638120641,-29.5,22.0608652903243,19.9779961447576,311.509924479954
34,3.65645869194963,-29.5,22.046848354359,19.9662105648286,311.517454698345
34.5,3.65627202095785,-29.5,22.0328314183937,19.9544249848996,311.524966757263
35,3.65608536691768,-29.5,22.0188144824284,19.9426394049706,311.532478513871
35.5,3.65589871287751,-29.5,22.0047975464631,19.9308538250416,311.539990270479
36,3.65571205883734,-29.5,21.9907806104977,19.9190682451126,311.547502027087
36.5,3.65552628465669,-29.5,21.9767636745324,19.9072826651836,311.554995785351
37,3.65534056114602,-29.5,21.9627467385671,19.8954970852546,311.562488507113
37.5,3.65515483763536,-29.5,21.9487298026018,19.8837115053256,311.569981228876
38,3.6549691141247,-29.5,21.9347128666365,19.8719259253966,311.577473950638
38.5,3.65478415496359,-29.5,21.9206959306712,19.8601403454677,311.584948944965
39,3.65459927373995,-29.5,21.9066789947059,19.8483547655387,311.592422131701
39.5,3.65441439251631,-29.5,21.8926620587406,19.8365691856097,311.599895318437
40,3.65422951129267,-29.5,21.8786451227753,19.8247836056807,311.607368505173
40.5,3.65404560355666,-29.5,21.86462818681,19.8129980257517,311.61481542726
41,3.65386184206773,-29.5,21.8506112508447,19.8012124458227,311.622258403607
41.5,3.6536780805788,-29.5,21.8365943148793,19.7894268658937,311.629701379955
42,3.65349431908987,-29.5,21.822577378914,19.7776412859647,311.637144356303
42.5,3.65331055760094,-29.5,21.8085604429487,19.7658557060357,311.644587332651
43,3.653126796112,-29.5,21.7945435069834,19.7540701261067,311.652030308998
43.5,3.65294303462307,-29.5,21.7805265710181,19.7422845461777,311.659473285346
44,3.65275927313414,-29.5,21.7665096350528,19.7304989662487,311.666916261694
44.5,3.65257654274143,-29.5,21.7524926990875,19.7187133863198,311.674326297374
45,3.65239408111395,-29.5,21.7384757631222,19.7069278063908,311.681727746749
45.5,3.65221161948648,-29.5,21.7244588271569,19.6951422264618,311.689129196124
46,3.652029157859,-29.5,21.7104418911916,19.6833566465328,311.696530645499
46.5,3.65184669623152,-29.5,21.6964249552263,19.6715710666038,311.703932094875
47,3.65166423460404,-29.5,21.682408019261,19.6597854866748,311.71133354425
47.5,3.65148177297657,-29.5,21.6683910832956,19.6479999067458,311.718734993625
48,3.65129931134909,-29.5,21.6543741473303,19.6362143268168,311.726136443001
48.5,3.65111736840127,-29.5,21.640357211365,19.6244287468878,311.733518844903
49,3.65093563009605,-29.5,21.6263402753997,19.6126431669588,311.740893731716
49.5,3.6507540327617,-29.5,21.6123233394344,19.6008575870298,311.748262965622
50,3.70782255306013,5.692425042473,21.5983175512213,19.5890813802424,311.755620752618
50.5,3.72287430601891,14.75,21.605316098938,19.5949658291481,311.750336049998
51,3.72316066767443,14.75,21.6123245669207,19.6008586191126,311.745584236752
51.5,3.7234278704275,14.75,21.6193330349033,19.6067514090771,311.740844147639
52,3.72368062010733,14.75,21.626341502886,19.6126441990416,311.736117304037
52.5,3.72392091299255,14.75,21.6333499708686,19.6185369890061,311.731405724316
53,3.72415212040598,14.75,21.6403584388513,19.6244297789706,311.726707958735
53.5,3.7243738609705,14.75,21.647366906834,19.630322568935,311.722027525538
54,3.72458831368624,14.75,21.6543753748166,19.6362153588995,311.717362781638
54.5,3.72479639052866,14.75,21.6613838427993,19.6421081488641,311.712713669442
55,3.72499778691411,14.75,21.6683923107819,19.6480009388285,311.708083202161
55.5,3.72519415425334,14.75,21.6754007787646,19.653893728793,311.703468482468
56,3.72538546354885,14.75,21.6824092467472,19.6597865187575,311.698871240726
56.5,3.72557168193917,14.75,21.6894177147299,19.665679308722,311.694293320274
57,3.72575421959114,14.75,21.6964261827125,19.6715720986865,311.689731080772
57.5,3.72593370572318,14.75,21.7034346506952,19.677464888651,311.685182275601
58,3.7261087602608,14.75,21.7104431186778,19.6833576786155,311.680654665651
58.5,3.72628054277064,14.75,21.7174515866605,19.68925046858,311.676144428211
59,3.72644990170743,14.75,21.7244600546431,19.6951432585445,311.671647575731
59.5,3.72661595115439,14.75,21.7314685226258,19.701036048509,311.667170064078
60,3.72677972183834,14.75,21.7384769906085,19.7069288384735,311.662706936724
60.5,3.6792607817535,-14.75,21.7314769327874,19.701043119857,311.665141306885
61,3.67910966017721,-14.75,21.7244684648047,19.6951503298925,311.667250686043
61.5,3.6789707486503,-14.75,21.7174599968221,19.689257539928,311.669365836083
62,3.67884044850627,-14.75,21.7104515288394,19.6833647499635,311.671485337172
62.5,3.67871761896376,-14.75,21.7034430608568,19.677471959999,311.673608686899
63,3.67860014433324,-14.75,21.6964345928741,19.6715791700345,311.675734735488
63.5,3.67848744042007,-14.75,21.6894261248915,19.66568638007,311.677863060392
64,3.67837866984461,-14.75,21.6824176569088,19.6597935901055,311.679993091622
64.5,3.67827336821212,-14.75,21.6754091889261,19.653900800141,311.682124461911
65,3.67817107221017,-14.75,21.6684007209435,19.6480080101765,311.684256764349
65.5,3.67807141354009,-14.75,21.6613922529608,19.642115220212,311.68638967858
66,3.67797421046596,-14.75,21.6543837849782,19.6362224302475,311.688522898953
66.5,3.67787906670045,-14.75,21.6473753169955,19.630329640283,311.690656152266
67,3.67778578323849,-14.75,21.6403668490129,19.6244368503185,311.69278920971
67.5,3.67769418253453,-14.75,21.6333583810302,19.618544060354,311.694921854752
68,3.67760431046723,-14.75,21.6263499130476,19.6126512703895,311.697053748134
68.5,3.67751574212417,-14.75,21.6193414450649,19.606758480425,311.699184910381
69,3.67742822955141,-14.75,21.6123329770823,19.6008656904605,311.701315174694
69.5,3.67734192384565,-14.75,21.6053245090996,19.594972900496,311.703444412566
70,3.67725677656597,-14.75,21.598316041117,19.5890801105315,311.705572225354
70.5,3.67717240129259,-14.75,21.5913075731343,19.583187320567,311.707699088428
71,3.67708924657439,-14.75,21.5842991051516,19.5772945306026,311.709823909372
71.5,3.67700653517521,-14.75,21.577290637169,19.571401740638,311.711947988592
72,3.67692507531901,-14.75,21.5702821691863,19.5655089506736,311.714069348695
72.5,3.67684380803636,-14.75,21.5632737012037,19.5596161607091,311.716190290055
73,3.67676379918709,-14.75,21.556265233221,19.5537233707446,311.71830780653
73.5,3.67668393840736,-14.75,21.5492567652384,19.5478305807801,311.720424828845
74,3.67660503463955,-14.75,21.5422482972557,19.5419377908156,311.72253865728
74.5,3.6765263916694,-14.75,21.5352398292731,19.5360450008511,311.724651436674
75,3.67644846297168,-14.75,21.5282313612904,19.5301522108866,311.726761342957
75.5,3.67637103563976,-14.75,21.5212228933078,19.5242594209221,311.72886873422
76,3.67629435741358,-14.75,21.5142144253251,19.5183666309576,311.730972367718
76.5,3.6762176791874,-14.75,21.5072059573424,19.5124738409931,311.733076001216
77,3.67614100096122,-14.75,21.5001974893598,19.5065810510286,311.735179634714
77.5,3.67606524502385,-14.75,21.4931890213771,19.5006882610641,311.737277325223
78,3.67598994769057,-14.75,21.4861805533945,19.4947954710996,311.739372060606
78.5,3.67591465035729,-14.75,21.4791720854118,19.4889026811351,311.741466795989
79,3.675839353024,-14.75,21.4721636174292,19.4830098911706,311.743561531373
79.5,3.67576509483142,-14.75,21.4651551494465,19.4771171012061,311.745647495143
80,3.67569090906312,-14.75,21.4581466814639,19.4712243112416,311.747732847563
80.5,3.67561672329481,-14.75,21.4511382134812,19.4653315212771,311.749818199984
81,3.67554272052622,-14.75,21.4441297454986,19.4594387313126,311.751901584425
81.5,3.67546944161089,-14.75,21.4371212775159,19.4535459413481,311.753977184546
82,3.67539616269556,-14.75,21.4301128095332,19.4476531513836,311.756052784667
82.5,3.67532288378023,-14.75,21.4231043415506,19.4417603614191,311.758128384788
83,3.67524995620439,-14.75,21.4160958735679,19.4358675714546,311.760199264826
83.5,3.67517742681627,-14.75,21.4090874055853,19.4299747814902,311.762264795397
84,3.67510489742816,-14.75,21.4020789376026,19.4240819915257,311.764330325968
84.5,3.67503236804004,-14.75,21.39507046962,19.4181892015612,311.766395856539
85,3.67496029921908,-14.75,21.3880620016373,19.4122964115967,311.768453787381
85.5,3.67488839585687,-14.75,21.3810535336547,19.4064036216322,311.770508988021
86,3.67481649249467,-14.75,21.374045065672,19.4005108316677,311.772564188661
86.5,3.67474459053039,-14.75,21.3670365976893,19.3946180417032,311.77461936146
87,3.674673214388,-14.75,21.3600281297067,19.3887252517387,311.776664062101
87.5,3.6746018382456,-14.75,21.353019661724,19.3828324617742,311.778708762741
88,3.6745304621032,-14.75,21.3460111937414,19.3769396718097,311.780753463382
88.5,3.6744592067937,-14.75,21.3390027257587,19.3710468818452,311.782795305121
89,3.67438827883921,-14.75,21.3319942577761,19.3651540918807,311.784829401656
89.5,3.67431735088471,-14.75,21.3249857897934,19.3592613019162,311.786863498191
90,3.67424642293022,-14.75,21.3179773218108,19.3533685119517,311.788897594726
90.5,3.67417570163882,-14.75,21.3109688538281,19.3474757219872,311.790925960343
91,3.67410515885107,-14.75,21.3039603858455,19.3415829320227,311.792949375924
91.5,3.67403461606332,-14.75,21.2969519178628,19.3356901420582,311.794972791505
92,3.67396407327557,-14.75,21.2899434498802,19.3297973520937,311.796996207086
92.5,3.67389391749796,-14.75,21.2829349818975,19.3239045621292,311.799006644612
93,3.6738238563617,-14.75,21.2759265139148,19.3180117721647,311.801013908422
93.5,3.67375379522543,-14.75,21.2689180459322,19.3121189822002,311.803021172231
94,3.67368373408917,-14.75,21.2619095779495,19.3062261922357,311.805028436041
94.5,3.67361367295291,-14.75,21.2549011099669,19.3003334022712,311.80703569985
95,3.67354361181665,-14.75,21.2478926419842,19.2944406123068,311.80904296366
95.5,3.67347355068039,-14.75,21.2408841740016,19.2885478223423,311.81105022747
96,3.67340366596706,-14.75,21.2338757060189,19.2826550323778,311.813050170041
96.5,3.67333412770492,-14.75,21.2268672380363,19.2767622424133,311.815035735505
97,3.67326458944279,-14.75,21.2198587700536,19.2708694524488,311.817021300968
97.5,3.67319505118065,-14.75,21.2128503020709,19.2649766624843,311.819006866432
98,3.67312551291851,-14.75,21.2058418340883,19.2590838725198,311.820992431896
98.5,3.67305597465637,-14.75,21.1988333661056,19.2531910825553,311.82297799736
99,3.67298643639423,-14.75,21.191824898123,19.2472982925908,311.824963562823
99.5,3.67291689813209,-14.75,21.1848164301403,19.2414055026263,311.826949128287
100,3.67284772465877,-14.75,21.1778079621577,19.2355127126618,311.828915731789
100.5,3.67277860506211,-14.75,21.170799494175,19.2296199226973,311.830879534748
101,3.67270948546546,-14.75,21.1637910261924,19.2237271327328,311.832843337706
101.5,3.6726403658688,-14.75,21.1567825582097,19.2178343427683,311.834807140664
102,3.67257124627214,-14.75,21.1497740902271,19.2119415528038,311.836770943623
102.5,3.67250212667548,-14.75,21.1427656222444,19.2060487628393,311.838734746581
103,3.67243300707883,-14.75,21.1357571542617,19.2001559728748,311.840698549539
103.5,3.67236402789098,-14.75,21.1287486862791,19.1942631829103,311.842653560648
104,3.67229525479734,-14.75,21.1217402182964,19.1883703929458,311.844595666945
104.5,3.6722264817037,-14.75,21.1147317503138,19.1824776029813,311.846537773243
105,3.67215770861005,-14.75,21.1077232823311,19.1765848130168,311.84847987954
105.5,3.67208893551641,-14.75,21.1007148143485,19.1706920230523,311.850421985837
106,3.67202016242277,-14.75,21.0937063463658,19.1647992330878,311.852364092135
106.5,3.67195138932912,-14.75,21.0866978783832,19.1589064431234,311.854306198432
107,3.67188261623548,-14.75,21.0796894104005,19.1530136531589,311.85624830473
107.5,3.67181412163574,-14.75,21.0726809424179,19.1471208631944,311.858170169466
108,3.67174564508979,-14.75,21.0656724744352,19.1412280732299,311.860090722013
108.5,3.67167716854385,-14.75,21.0586640064526,19.1353352832654,311.862011274559
109,3.6716086919979,-14.75,21.0516555384699,19.1294424933009,311.863931827105
109.5,3.67154021545196,-14.75,21.0446470704872,19.1235497033364,311.865852379652
110,3.67147173890601,-14.75,21.0376386025046,19.1176569133719,311.867772932198
110.5,3.67140326236007,-14.75,21.0306301345219,19.1117641234074,311.869693484744
111,3.67133490903525,-14.75,21.0236216665393,19.1058713334429,311.871603916492
111.5,3.67126669298615,-14.75,21.0166131985566,19.0999785434784,311.873503073062
112,3.67119847693706,-14.75,21.009604730574,19.0940857535139,311.875402229632
112.5,3.67113026088796,-14.75,21.0025962625913,19.0881929635494,311.877301386202
113,3.67106204483887,-14.75,20.9955877946087,19.0823001735849,311.879200542771
113.5,3.67099382878978,-14.75,20.988579326626,19.0764073836204,311.881099699341
114,3.67092561274068,-14.75,20.9815708586434,19.0705145936559,311.882998855911
114.5,3.67085739829853,-14.75,20.9745623906607,19.0646218036914,311.884897865258
115,3.67078941423711,-14.75,20.967553922678,19.0587290137269,311.886775767754
115.5,3.6707214301757,-14.75,20.9605454546954,19.0528362237624,311.88865367025
116,3.67065344611428,-14.75,20.9535369867127,19.0469434337979,311.890531572746
116.5,3.67058546205286,-14.75,20.9465285187301,19.0410506438334,311.892409475242
117,3.67051747799144,-14.75,20.9395200507474,19.0351578538689,311.894287377738
117.5,3.67044949393002,-14.75,20.9325115827648,19.0292650639045,311.896165280234
118,3.67038150986861,-14.75,20.9255031147821,19.02337227394,311.89804318273
118.5,3.67031363864487,-14.75,20.9184946467995,19.0174794839755,311.899909672882
119,3.67024586322134,-14.75,20.9114861788168,19.011586694011,311.901766473848
119.5,3.67017808779781,-14.75,20.9044777108342,19.0056939040465,311.903623274815
120,3.67011031237429,-14.75,20.8974692428515,18.999801114082,311.905480075782
120.5,3.67004253695076,-14.75,20.8904607748688,18.9939083241175,311.907336876749
121,3.66997476152724,-14.75,20.8834523068862,18.988015534153,311.909193677715
121.5,3.66990698610371,-14.75,20.8764438389035,18.9821227441885,311.911050478682
122,3.66983922484842,-14.75,20.8694353709209,18.976229954224,311.912905717095
122.5,3.6697716390081,-14.75,20.8624269029382,18.9703371642595,311.91474160975
123,3.66970405316779,-14.75,20.8554184349556,18.964444374295,311.916577502405
123.5,3.66963646732747,-14.75,20.8484099669729,18.9585515843305,311.91841339506
124,3.66956888148715,-14.75,20.8414014989903,18.952658794366,311.920249287715
124.5,3.66950129564684,-14.75,20.8343930310076,18.9467660044015,311.92208518037
125,3.66943370980652,-14.75,20.827384563025,18.940873214437,311.923921073024
125.5,3.6693661239662,-14.75,20.8203760950423,18.9349804244725,311.925756965679
126,3.6692986437932,-14.75,20.8133676270597,18.929087634508,311.927580260224
126.5,3.66923123156592,-14.75,20.806359159077,18.9231948445435,311.929395453989
127,3.66916381933864,-14.75,20.7993506910943,18.917302054579,311.931210647754
