time,voltage,curr_density,SOC,SOC_est,temp
0,3.62313224617508,-29.5,17,15.72277,313
0.5,3.62272654975952,-29.5,16.9859830640347,15.710984420071,313.009034018403
1,3.62234322963418,-29.5,16.9719661280694,15.699198840142,313.017740625294
1.5,3.62197325792985,-29.5,16.9579491921041,15.687413260213,313.026459757766
2,3.62161364577599,-29.5,16.9439322561388,15.675627680284,313.035189002289
2.5,3.62126213022511,-29.5,16.9299153201735,15.663842100355,313.043926174255
3,3.62091770736311,-29.5,16.9158983842081,15.6520565204261,313.052670099045
3.5,3.62057935786591,-29.5,16.9018814482428,15.6402709404971,313.061419496407
4,3.62024603896176,-29.5,16.8878645122775,15.6284853605681,313.070173108689
4.5,3.61991718439906,-29.5,16.8738475763122,15.6166997806391,313.078930082673
5,3.61959232492302,-29.5,16.8598306403469,15.6049142007101,313.087689669747
5.5,3.61927107746929,-29.5,16.8458137043816,15.5931286207811,313.096451210048
6,3.6189536821213,-29.5,16.8317967684163,15.5813430408521,313.105214249716
6.5,3.61863947446638,-29.5,16.817779832451,15.5695574609231,313.113978006032
7,3.61832735506978,-29.5,16.8037628964857,15.5577718809941,313.122741770013
7.5,3.6180176100942,-29.5,16.7897459605204,15.5459863010651,313.13150554271
8,3.6177108850465,-29.5,16.7757290245551,15.5342007211361,313.140268372887
8.5,3.61740532187968,-29.5,16.7617120885897,15.5224151412071,313.149030730448
9,3.61710287239553,-29.5,16.7476951526244,15.5106295612781,313.157790971213
9.5,3.6168016246364,-29.5,16.7336782166591,15.4988439813492,313.166549900836
10,3.61650219838292,-29.5,16.7196612806938,15.4870584014202,313.175306843103
10.5,3.61620467741656,-29.5,16.7056443447285,15.4752728214912,313.184060845853
11,3.61590798617923,-29.5,16.6916274087632,15.4634872415622,313.192813548452
11.5,3.61561366351589,-29.5,16.6776104727979,15.4517016616332,313.201561452674
12,3.61532004932505,-29.5,16.6635935368326,15.4399160817042,313.210307546245
12.5,3.61502789287541,-29.5,16.6495766008673,15.4281305017752,313.219049914251
13,3.61473698166928,-29.5,16.635559664902,15.4163449218462,313.227788376632
13.5,3.61444678035656,-29.5,16.6215427289367,15.4045593419172,313.236524612479
14,3.61415901744475,-29.5,16.6075257929713,15.3927737619882,313.245251130412
14.5,3.61387139164964,-29.5,16.593508857006,15.3809881820592,313.253977101885
15,3.61358376585452,-29.5,16.5794919210407,15.3692026021302,313.262703073358
15.5,3.61329780375613,-29.5,16.5654749850754,15.3574170222013,313.271420423782
16,3.61301311492963,-29.5,16.5514580491101,15.3456314422723,313.280131176286
16.5,3.61272842610312,-29.5,16.5374411131448,15.3338458623433,313.288841928789
17,3.61244419282008,-29.5,16.5234241771795,15.3220602824143,313.297549562182
17.5,3.61216195087438,-29.5,16.5094072412142,15.3102747024853,313.306243560869
18,3.61187970892867,-29.5,16.4953903052489,15.2984891225563,313.314937559556
18.5,3.61159746698297,-29.5,16.4813733692836,15.2867035426273,313.323631558242
19,3.61131688087238,-29.5,16.4673564333183,15.2749179626983,313.332311075427
19.5,3.61103669362126,-29.5,16.4533394973529,15.2631323827693,313.34098710429
20,3.61075650637014,-29.5,16.4393225613876,15.2513468028403,313.349663133153
20.5,3.61047705892873,-29.5,16.4253056254223,15.2395612229114,313.358331085975
21,3.61019861001455,-29.5,16.411288689457,15.2277756429824,313.366988138496
21.5,3.60992016110037,-29.5,16.3972717534917,15.2159900630534,313.375645191018
22,3.60964177920322,-29.5,16.3832548175264,15.2042044831244,313.384301345192
22.5,3.60936481000164,-29.5,16.3692378815611,15.1924189031954,313.3929385625
23,3.60908784080007,-29.5,16.3552209455958,15.1806333232664,313.401575779808
23.5,3.60881087159849,-29.5,16.3412040096305,15.1688477433374,313.410212997117
24,3.60853474272376,-29.5,16.3271870736652,15.1570621634084,313.41883654296
24.5,3.60825903717844,-29.5,16.3131701376999,15.1452765834794,313.427453201562
25,3.60798333163312,-29.5,16.2991532017345,15.1334910035504,313.436069860165
25.5,3.60770793437566,-29.5,16.2851362657692,15.1217054236214,313.444680502348
26,3.6074333116736,-29.5,16.2711193298039,15.1099198436924,313.453276028629
26.5,3.60715868897153,-29.5,16.2571023938386,15.0981342637635,313.461871554909
27,3.60688406626947,-29.5,16.2430854578733,15.0863486838345,313.470467081189
27.5,3.60661028589907,-29.5,16.229068521908,15.0745631039055,313.479043076543
28,3.60633659455946,-29.5,16.2150515859427,15.0627775239765,313.487617007564
28.5,3.60606290321985,-29.5,16.2010346499774,15.0509919440475,313.496190938585
29,3.60578963320039,-29.5,16.1870177140121,15.0392063641185,313.504753350981
29.5,3.60551674573224,-29.5,16.1730007780468,15.0274207841895,313.513305304669
30,3.60524385826408,-29.5,16.1589838420815,15.0156352042605,313.521857258357
30.5,3.60497107081611,-29.5,16.1449669061161,15.0038496243315,313.530405999015
31,3.60469887880359,-29.5,16.1309499701508,14.9920640444025,313.538935612018
31.5,3.60442668679107,-29.5,16.1169330341855,14.9802784644735,313.547465225021
32,3.60415449477854,-29.5,16.1029160982202,14.9684928845445,313.555994838023
32.5,3.60388296300522,-29.5,16.0888991622549,14.9567073046156,313.564498514075
33,3.60361163571722,-29.5,16.0748822262896,14.9449217246866,313.572994157089
33.5,3.60334030842923,-29.5,16.0608652903243,14.9331361447576,313.581489800102
34,3.60306898114124,-29.5,16.046848354359,14.9213505648286,313.589985443116
34.5,3.60279765385325,-29.5,16.0328314183937,14.9095649848996,313.59848108613
35,3.60252632656525,-29.5,16.0188144824284,14.8977794049706,313.606976729144
35.5,3.60225500195443,-29.5,16.0047975464631,14.8859938250416,313.615472236886
36,3.60198458616934,-29.5,15.9907806104978,14.8742082451126,313.623921823682
36.5,3.60171417038425,-29.5,15.9767636745324,14.8624226651836,313.632371410478
37,3.60144375459917,-29.5,15.9627467385671,14.8506370852546,313.640820997274
37.5,3.60117333881408,-29.5,15.9487298026018,14.8388515053256,313.64927058407
38,3.60090292302899,-29.5,15.9347128666365,14.8270659253966,313.657720170866
38.5,3.6006325072439,-29.5,15.9206959306712,14.8152803454677,313.666169757661
39,3.6003622571567,-29.5,15.9066789947059,14.8034947655387,313.674608042017
39.5,3.60009252508837,-29.5,15.8926620587406,14.7917091856097,313.683010991717
40,3.59982279302005,-29.5,15.8786451227753,14.7799236056807,313.691413941418
40.5,3.59955306095173,-29.5,15.86462818681,14.7681380257517,313.699816891119
41,3.5992833288834,-29.5,15.8506112508447,14.7563524458227,313.708219840819
41.5,3.59901359681508,-29.5,15.8365943148793,14.7445668658937,313.71662279052
42,3.59874386474676,-29.5,15.822577378914,14.7327812859647,313.72502574022
42.5,3.59847437766245,-29.5,15.8085604429487,14.7209957060357,313.733406040081
43,3.59820515411256,-29.5,15.7945435069834,14.7092101261067,313.741761975036
43.5,3.59793593056267,-29.5,15.7805265710181,14.6974245461777,313.750117909992
44,3.59766670701278,-29.5,15.7665096350528,14.6856389662487,313.758473844947
44.5,3.59739748346289,-29.5,15.7524926990875,14.6738533863198,313.766829779903
45,3.59712825991299,-29.5,15.7384757631222,14.6620678063908,313.775185714859
45.5,3.5968590363631,-29.5,15.7244588271569,14.6502822264618,313.783541649814
46,3.59659007906486,-29.5,15.7104418911916,14.6384966465328,313.791863473237
46.5,3.59632122470797,-29.5,15.6964249552263,14.6267110666038,313.800172108056
47,3.59605237035108,-29.5,15.6824080192609,14.6149254866748,313.808480742876
47.5,3.59578351599418,-29.5,15.6683910832956,14.6031399067458,313.816789377695
48,3.59551466163729,-29.5,15.6543741473303,14.5913543268168,313.825098012515
48.5,3.5952458072804,-29.5,15.640357211365,14.5795687468878,313.833406647334
49,3.59497695292351,-29.5,15.6263402753997,14.5677831669588,313.841715282154
49.5,3.59470826693946,-29.5,15.6123233394344,14.5559975870298,313.849995380178
50,3.65633197308721,5.24859029734384,15.5983174105979,14.5442212620048,313.858265942912
50.5,3.67359665783642,14.75,15.6053221742809,14.5501109373572,313.852222978088
51,3.67391137819899,14.75,15.6123306422636,14.5560037273217,313.846711302159
51.5,3.6742095828257,14.75,15.6193391102463,14.5618965172862,313.841213303073
52,3.67449515577152,14.75,15.6263475782289,14.5677893072506,313.835730146594
52.5,3.6747697641947,14.75,15.6333560462116,14.5736820972151,313.830263796207
53,3.67503566673619,14.75,15.6403645141942,14.5795748871796,313.824813840015
53.5,3.67529423127274,14.75,15.6473729821769,14.5854676771441,313.819380163002
54,3.67554590786117,14.75,15.6543814501595,14.5913604671086,313.813964150153
54.5,3.67579115586471,14.75,15.6613899181422,14.5972532570731,313.808566970791
55,3.67603125349262,14.75,15.6683983861248,14.6031460470376,313.803186777941
55.5,3.67626664263401,14.75,15.6754068541075,14.6090388370021,313.797823702362
56,3.67649700104962,14.75,15.6824153220901,14.6149316269666,313.7924808492
56.5,3.67672277452448,14.75,15.6894237900728,14.6208244169311,313.787158506432
57,3.67694604435776,14.75,15.6964322580555,14.6267172068956,313.781847915617
57.5,3.67716443175025,14.75,15.7034407260381,14.6326099968601,313.776562560201
58,3.67738054619759,14.75,15.7104491940208,14.6385027868246,313.771289984231
58.5,3.67759350451017,14.75,15.7174576620034,14.6443955767891,313.766035617558
59,3.67780291324356,14.75,15.7244661299861,14.6502883667536,313.760803905237
59.5,3.67801080361499,14.75,15.7314745979687,14.6561811567181,313.755582188764
60,3.64482392698362,-4.31095232549865,15.7384776318832,14.6620693776638,313.750387380047
60.5,3.62633985111731,-14.75,15.7314758828646,14.6561822370714,313.753178469296
61,3.62616098219187,-14.75,15.7244674148819,14.6502894471069,313.755648802192
61.5,3.62599222548672,-14.75,15.7174589468993,14.6443966571424,313.758122665339
62,3.62583131648911,-14.75,15.7104504789166,14.6385038671779,313.760599287504
62.5,3.62567666374275,-14.75,15.703442010934,14.6326110772134,313.763077846192
63,3.62552655078289,-14.75,15.6964335429513,14.6267182872489,313.765557509039
63.5,3.62538094129828,-14.75,15.6894250749687,14.6208254972844,313.768037927731
64,3.62523861262067,-14.75,15.682416606986,14.6149327073199,313.770518603735
64.5,3.62509928262846,-14.75,15.6754081390034,14.6090399173554,313.772999189806
65,3.62496306045153,-14.75,15.6683996710207,14.6031471273909,313.77547919763
65.5,3.62482862705382,-14.75,15.661391203038,14.5972543374264,313.777958646131
66,3.62469669175405,-14.75,15.6543827350554,14.5913615474619,313.780436833605
66.5,3.62456613461018,-14.75,15.6473742670727,14.5854687574974,313.782914092039
67,3.6244372844601,-14.75,15.6403657990901,14.5795759675329,313.785390021303
67.5,3.62431027424389,-14.75,15.6333573311074,14.5736831775684,313.787863916138
68,3.62418427261398,-14.75,15.6263488631248,14.5677903876039,313.790336444316
68.5,3.62405950996415,-14.75,15.6193403951421,14.5618975976394,313.792807128937
69,3.62393616176494,-14.75,15.6123319271595,14.5560048076749,313.795275133667
69.5,3.62381358080119,-14.75,15.6053234591768,14.5501120177105,313.797741458288
70,3.62369193035701,-14.75,15.5983149911942,14.544219227746,313.800205618423
70.5,3.62357139435912,-14.75,15.5913065232115,14.5383264377815,313.802666652706
71,3.62345145536362,-14.75,15.5842980552289,14.532433647817,313.805125780806
71.5,3.62333222939557,-14.75,15.5772895872462,14.5265408578525,313.807582521996
72,3.62321389963486,-14.75,15.5702811192635,14.520648067888,313.810035726597
72.5,3.62309620294614,-14.75,15.5632726512809,14.5147552779235,313.812485979647
73,3.62297931349134,-14.75,15.5562641832982,14.508862487959,313.814932333149
73.5,3.62286242403654,-14.75,15.5492557153156,14.5029696979945,313.817378686651
74,3.62274612932827,-14.75,15.5422472473329,14.49707690803,313.819821436752
74.5,3.62263071869987,-14.75,15.5352387793503,14.4911841180655,313.822258830463
75,3.62251530807146,-14.75,15.5282303113676,14.485291328101,313.824696224173
75.5,3.62240039959048,-14.75,15.521221843385,14.4793985381365,313.827129718521
76,3.62228619599783,-14.75,15.5142133754023,14.473505748172,313.829557739147
76.5,3.62217199240517,-14.75,15.5072049074196,14.4676129582075,313.831985759772
77,3.6220582162587,-14.75,15.500196439437,14.461720168243,313.834409606471
77.5,3.6219450070521,-14.75,15.4931879714543,14.4558273782785,313.836827917114
78,3.62183179784551,-14.75,15.4861795034717,14.449934588314,313.839246227757
78.5,3.62171895555036,-14.75,15.479171035489,14.4440417983495,313.841660083415
79,3.62160657327638,-14.75,15.4721625675064,14.438149008385,313.844068353564
79.5,3.6214941910024,-14.75,15.4651540995237,14.4322562184205,313.846476623712
80,3.62138212556334,-14.75,15.4581456315411,14.426363428456,313.848880190338
80.5,3.62127043575797,-14.75,15.4511371635584,14.4204706384915,313.851278180552
81,3.62115874595261,-14.75,15.4441286955758,14.4145778485271,313.853676170766
81.5,3.62104733052466,-14.75,15.4371202275931,14.4086850585626,313.856069242067
82,3.62093622278403,-14.75,15.4301117596105,14.4027922685981,313.85845679729
82.5,3.62082511504339,-14.75,15.4231032916278,14.3968994786336,313.860844352514
83,3.62071424562572,-14.75,15.4160948236451,14.3910066886691,313.86322677558
83.5,3.62060362904094,-14.75,15.4090863556625,14.3851138987046,313.865603754025
84,3.62049301245616,-14.75,15.4020778876798,14.3792211087401,313.86798073247
84.5,3.6203826037558,-14.75,15.3950694196972,14.3733283187756,313.870352366159
85,3.62027240371368,-14.75,15.3880609517145,14.3674355288111,313.872718635198
85.5,3.62016220367155,-14.75,15.3810524837319,14.3615427388466,313.875084904236
86,3.62005218569893,-14.75,15.3740440157492,14.3556499488821,313.877445634499
86.5,3.61994234062797,-14.75,15.3670355477666,14.3497571589176,313.879801104883
87,3.61983249555701,-14.75,15.3600270797839,14.3438643689531,313.882156575267
87.5,3.61972287913917,-14.75,15.3530186118012,14.3379715789886,313.884503432821
88,3.61961346814619,-14.75,15.3460101438186,14.3320787890241,313.886842552499
88.5,3.61950405715321,-14.75,15.3390016758359,14.3261859990596,313.889181672177
89,3.61939464616023,-14.75,15.3319932078533,14.3202932090951,313.891520791855
89.5,3.61928523516725,-14.75,15.3249847398706,14.3144004191306,313.893859911533
90,3.61917582417427,-14.75,15.317976271888,14.3085076291661,313.896199031211
90.5,3.6190666631109,-14.75,15.3109678039053,14.3026148392016,313.898526019483
91,3.61895770289593,-14.75,15.3039593359227,14.2967220492371,313.900843258717
91.5,3.61884874268096,-14.75,15.29695086794,14.2908292592726,313.90316049795
92,3.61873978246599,-14.75,15.2899423999574,14.2849364693081,313.905477737183
92.5,3.61863082225102,-14.75,15.2829339319747,14.2790436793437,313.907794976416
93,3.61852186203604,-14.75,15.2759254639921,14.2731508893792,313.910112215649
93.5,3.61841309678303,-14.75,15.2689169960094,14.2672580994147,313.9124166949
94,3.61830447148217,-14.75,15.2619085280267,14.2613653094502,313.914712014483
94.5,3.6181958461813,-14.75,15.2549000600441,14.2554725194857,313.917007334065
95,3.61808722088043,-14.75,15.2478915920614,14.2495797295212,313.919302653648
95.5,3.61797859557957,-14.75,15.2408831240788,14.2436869395567,313.92159797323
96,3.6178699702787,-14.75,15.2338746560961,14.2377941495922,313.923893292813
96.5,3.61776149805753,-14.75,15.2268661881135,14.2319013596277,313.92617524463
97,3.6176531237852,-14.75,15.2198577201308,14.2260085696632,313.928448643015
97.5,3.61754474951287,-14.75,15.2128492521482,14.2201157796987,313.930722041399
98,3.61743637524054,-14.75,15.2058407841655,14.2142229897342,313.932995439783
98.5,3.6173280009682,-14.75,15.1988323161828,14.2083301997697,313.935268838168
99,3.61721962669587,-14.75,15.1918238482002,14.2024374098052,313.937542236552
99.5,3.61711137327513,-14.75,15.1848153802175,14.1965446198407,313.939801680942
100,3.61700318857551,-14.75,15.1778069122349,14.1906518298762,313.942053190525
100.5,3.61689500387589,-14.75,15.1707984442522,14.1847590399117,313.944304700108
101,3.61678681917627,-14.75,15.1637899762696,14.1788662499472,313.946556209691
101.5,3.61667863447665,-14.75,15.1567815082869,14.1729734599827,313.948807719274
102,3.61657044977703,-14.75,15.1497730403042,14.1670806700182,313.951059228857
102.5,3.61646236028801,-14.75,15.1427645723216,14.1611878800537,313.953296227258
103,3.61635431872362,-14.75,15.1357561043389,14.1552950900892,313.955525921399
103.5,3.61624627715923,-14.75,15.1287476363563,14.1494023001247,313.95775561554
104,3.61613823559483,-14.75,15.1217391683736,14.1435095101602,313.959985309681
104.5,3.61603019403044,-14.75,15.114730700391,14.1376167201957,313.962215003822
105,3.61592215246605,-14.75,15.1077222324083,14.1317239302312,313.964444697963
105.5,3.61581418474491,-14.75,15.1007137644257,14.1258311402667,313.966659369659
106,3.61570624975734,-14.75,15.093705296443,14.1199383503022,313.968867382137
106.5,3.61559831476977,-14.75,15.0866968284603,14.1140455603377,313.971075394616
107,3.6154903797822,-14.75,15.0796883604777,14.1081527703732,313.973283407095
107.5,3.61538244479463,-14.75,15.072679892495,14.1022599804087,313.975491419573
108,3.61527450980706,-14.75,15.0656714245124,14.0963671904443,313.977699432052
108.5,3.61516663040608,-14.75,15.0586629565297,14.0904744004798,313.97989191921
109,3.61505877256331,-14.75,15.0516544885471,14.0845816105153,313.982078385166
109.5,3.61495091472054,-14.75,15.0446460205644,14.0786888205508,313.984264851122
110,3.61484305687777,-14.75,15.0376375525818,14.0727960305863,313.986451317079
110.5,3.614735199035,-14.75,15.0306290845991,14.0669032406218,313.988637783035
111,3.61462734119223,-14.75,15.0236206166165,14.0610104506573,313.990824248991
111.5,3.61451952306079,-14.75,15.0166121486338,14.0551176606928,313.99299471071
112,3.61441171829147,-14.75,15.0096036806511,14.0492248707283,313.995159787304
112.5,3.61430391352215,-14.75,15.0025952126685,14.0433320807638,313.997324863898
113,3.61419610875283,-14.75,14.9955867446858,14.0374392907993,313.999489940492
113.5,3.6140883039835,-14.75,14.9885782767032,14.0315465008348,314.001655017086
114,3.61398049921418,-14.75,14.9815698087205,14.0256537108703,314.00382009368
114.5,3.61387271995341,-14.75,14.9745613407379,14.0197609209058,314.005968697117
115,3.61376494805939,-14.75,14.9675528727552,14.0138681309413,314.008112543177
115.5,3.61365717616537,-14.75,14.9605444047726,14.0079753409768,314.010256389237
116,3.61354940427136,-14.75,14.9535359367899,14.0020825510123,314.012400235298
116.5,3.61344163237734,-14.75,14.9465274688072,13.9961897610478,314.014544081358
117,3.61333386048332,-14.75,14.9395190008246,13.9902969710833,314.016687927418
117.5,3.6132261009445,-14.75,14.9325105328419,13.9844041811188,314.018806446768
118,3.61311834442522,-14.75,14.9255020648593,13.9785113911543,314.020918776378
118.5,3.61301058790595,-14.75,14.9184935968766,13.9726186011898,314.023031105988
119,3.61290283138667,-14.75,14.911485128894,13.9667258112253,314.025143435598
119.5,3.6127950748674,-14.75,14.9044766609113,13.9608330212608,314.027255765208
120,3.61268731834812,-14.75,14.8974681929287,13.9549402312963,314.029368094817
120.5,3.61257956182885,-14.75,14.890459724946,13.9490474413319,314.031480424427
121,3.61247180530957,-14.75,14.8834512569634,13.9431546513674,314.033592754037
121.5,3.6123640487903,-14.75,14.8764427889807,13.9372618614029,314.035705083647
122,3.61225629227102,-14.75,14.869434320998,13.9313690714384,314.037817413257
122.5,3.61214853575175,-14.75,14.8624258530154,13.9254762814739,314.039929742867
123,3.61204077923247,-14.75,14.8554173850327,13.9195834915094,314.042042072477
123.5,3.6119329980693,-14.75,14.8484089170501,13.9136907015449,314.044118784111
124,3.61182521286005,-14.75,14.8414004490674,13.9077979115804,314.046189647919
124.5,3.6117174276508,-14.75,14.8343919810848,13.9019051216159,314.048260511726
125,3.61160964244155,-14.75,14.8273835131021,13.8960123316514,314.050331375534
125.5,3.6115018572323,-14.75,14.8203750451195,13.8901195416869,314.052402239341
126,3.61139407202305,-14.75,14.8133665771368,13.8842267517224,314.054473103149
126.5,3.6112862868138,-14.75,14.8063581091542,13.8783339617579,314.056543966957
127,3.61117850160455,-14.75,14.7993496411715,13.8724411717934,314.058614830764
