time,voltage,curr_density,SOC,SOC_est,temp
0,3.70706110224347,-29.5,31,27.49411,302
0.5,3.70673196399273,-29.5,30.9859830640347,27.482324420071,302.006662261505
1,3.70643224921322,-29.5,30.9719661280694,27.470538840142,302.013016565888
1.5,3.7061496181543,-29.5,30.9579491921041,27.458753260213,302.019393380272
2,3.70588069160941,-29.5,30.9439322561388,27.446967680284,302.025790181127
2.5,3.70562164289191,-29.5,30.9299153201734,27.435182100355,302.032202325774
3,3.70537233420287,-29.5,30.9158983842081,27.4233965204261,302.038630257445
3.5,3.70513029754201,-29.5,30.9018814482428,27.4116109404971,302.045070410251
4,3.70489553842439,-29.5,30.8878645122775,27.3998253605681,302.051523078442
4.5,3.70466655503244,-29.5,30.8738475763122,27.3880397806391,302.057985797613
5,3.70444348796455,-29.5,30.8598306403469,27.3762542007101,302.064458871994
5.5,3.70422512893865,-29.5,30.8458137043816,27.3644686207811,302.070940126128
6,3.70401069604778,-29.5,30.8317967684163,27.3526830408521,302.077428137891
6.5,3.70379994802408,-29.5,30.817779832451,27.3408974609231,302.083922430885
7,3.70359373651565,-29.5,30.8037628964857,27.3291118809941,302.090424274273
7.5,3.70339091381676,-29.5,30.7897459605204,27.3173263010651,302.096931530314
8,3.7031909076277,-29.5,30.7757290245551,27.3055407211361,302.103443133281
8.5,3.70299357896959,-29.5,30.7617120885897,27.2937551412071,302.109958741647
9,3.70279956358562,-29.5,30.7476951526244,27.2819695612782,302.116479016648
9.5,3.70260814183625,-29.5,30.7336782166591,27.2701839813492,302.123002638701
10,3.70241885665955,-29.5,30.7196612806938,27.2583984014202,302.129528841029
10.5,3.70223161805114,-29.5,30.7056443447285,27.2466128214912,302.136057371684
11,3.70204690939094,-29.5,30.6916274087632,27.2348272415622,302.142588464601
11.5,3.70186522384895,-29.5,30.6776104727979,27.2230416616332,302.149121967149
12,3.70168437550715,-29.5,30.6635935368326,27.2112560817042,302.155656137004
12.5,3.70150409580874,-29.5,30.6495766008673,27.1994705017752,302.16219057941
13,3.70132780465977,-29.5,30.635559664902,27.1876849218462,302.168726933539
13.5,3.7011515135108,-29.5,30.6215427289367,27.1758993419172,302.175263287667
14,3.70097707248425,-29.5,30.6075257929714,27.1641137619882,302.181799734026
14.5,3.70080474787807,-29.5,30.593508857006,27.1523281820593,302.18833628589
15,3.70063242327189,-29.5,30.5794919210407,27.1405426021303,302.194872837754
15.5,3.70046291320925,-29.5,30.5654749850754,27.1287570222013,302.2014081803
16,3.70029407158415,-29.5,30.5514580491101,27.1169714422723,302.20794323564
16.5,3.70012569124927,-29.5,30.5374411131448,27.1051858623433,302.214477846401
17,3.69995993028723,-29.5,30.5234241771795,27.0934002824143,302.221009932686
17.5,3.69979416932519,-29.5,30.5094072412142,27.0816147024853,302.227542018972
18,3.69962975532127,-29.5,30.4953903052489,27.0698291225563,302.23407200525
18.5,3.69946673547763,-29.5,30.4813733692836,27.0580435426273,302.240599817929
19,3.69930371563399,-29.5,30.4673564333183,27.0462579626983,302.247127630609
19.5,3.69914273738129,-29.5,30.4533394973529,27.0344723827693,302.253650924542
20,3.69898216830164,-29.5,30.4393225613876,27.0226868028403,302.260173312834
20.5,3.69882198383463,-29.5,30.4253056254223,27.0109012229113,302.266694581363
21,3.69866361637455,-29.5,30.411288689457,26.9991156429824,302.273210559852
21.5,3.69850524891447,-29.5,30.3972717534917,26.9873300630534,302.279726538341
22,3.69834790723548,-29.5,30.3832548175264,26.9755444831244,302.28623875218
22.5,3.69819152638353,-29.5,30.3692378815611,26.9637589031954,302.292747439751
23,3.69803514553157,-29.5,30.3552209455958,26.9519733232664,302.299256127323
23.5,3.69788030895443,-29.5,30.3412040096305,26.9401877433374,302.305757887062
24,3.69772572795521,-29.5,30.3271870736652,26.9284021634084,302.312258500244
24.5,3.69757162295381,-29.5,30.3131701376999,26.9166165834794,302.31875643038
25,3.69741942607636,-29.5,30.2991532017345,26.9048310035504,302.32524360504
25.5,3.6972672291989,-29.5,30.2851362657692,26.8930454236214,302.3317307797
26,3.69711503232144,-29.5,30.2711193298039,26.8812598436924,302.33821795436
26.5,3.69696283544398,-29.5,30.2571023938386,26.8694742637634,302.344705129021
27,3.69681063856652,-29.5,30.2430854578733,26.8576886838345,302.351192303681
27.5,3.69666086188285,-29.5,30.229068521908,26.8459031039055,302.357662017983
28,3.69651140601007,-29.5,30.2150515859427,26.8341175239765,302.364129417811
28.5,3.69636195013728,-29.5,30.2010346499774,26.8223319440475,302.37059681764
29,3.6962124942645,-29.5,30.1870177140121,26.8105463641185,302.377064217469
29.5,3.69606303839172,-29.5,30.1730007780468,26.7987607841895,302.383531617298
30,3.69591489369603,-29.5,30.1589838420815,26.7869752042605,302.389986815925
30.5,3.6957677533106,-29.5,30.1449669061161,26.7751896243315,302.39643266891
31,3.69562061292518,-29.5,30.1309499701508,26.7634040444025,302.402878521895
31.5,3.69547347253975,-29.5,30.1169330341855,26.7516184644735,302.40932437488
32,3.69532633215433,-29.5,30.1029160982202,26.7398328845445,302.415770227864
32.5,3.69517968589643,-29.5,30.0888991622549,26.7280473046156,302.422210363432
33,3.69503452543198,-29.5,30.0748822262896,26.7162617246866,302.428633307281
33.5,3.69488936496753,-29.5,30.0608652903243,26.7044761447576,302.435056251129
34,3.69474420450308,-29.5,30.046848354359,26.6926905648286,302.441479194978
34.5,3.69459904403864,-29.5,30.0328314183937,26.6809049848996,302.447902138827
35,3.69445388357419,-29.5,30.0188144824284,26.6691194049706,302.454325082675
35.5,3.69431032083688,-29.5,30.0047975464631,26.6573338250416,302.460725655517
36,3.69416687306464,-29.5,29.9907806104977,26.6455482451126,302.467124618644
36.5,3.69402342529239,-29.5,29.9767636745324,26.6337626651836,302.473523581771
37,3.69387997752015,-29.5,29.9627467385671,26.6219770852546,302.479922544898
37.5,3.69373652974791,-29.5,29.9487298026018,26.6101915053256,302.486321508025
38,3.69359400485355,-29.5,29.9347128666365,26.5984059253966,302.492705188325
38.5,3.69345205482207,-29.5,29.9206959306712,26.5866203454676,302.499079348915
39,3.6933101047906,-29.5,29.9066789947059,26.5748347655387,302.505453509506
39.5,3.69316815475912,-29.5,29.8926620587406,26.5630491856097,302.511827670096
40,3.69302620472765,-29.5,29.8786451227753,26.5512636056807,302.518201830686
40.5,3.69288465070951,-29.5,29.86462818681,26.5394780257517,302.524568372751
41,3.69274402299106,-29.5,29.8506112508446,26.5276924458227,302.530917094615
41.5,3.6926033952726,-29.5,29.8365943148793,26.5159068658937,302.537265816478
42,3.69246276755415,-29.5,29.822577378914,26.5041212859647,302.543614538341
42.5,3.6923221398357,-29.5,29.8085604429487,26.4923357060357,302.549963260205
43,3.69218151211725,-29.5,29.7945435069834,26.4805501261067,302.556311982068
43.5,3.69204204260835,-29.5,29.7805265710181,26.4687645461777,302.562635249339
44,3.69190259338051,-29.5,29.7665096350528,26.4569789662487,302.568958070882
44.5,3.69176314415266,-29.5,29.7524926990875,26.4451933863198,302.575280892425
45,3.69162369492482,-29.5,29.7384757631222,26.4334078063908,302.581603713969
45.5,3.69148424569697,-29.5,29.7244588271569,26.4216222264618,302.587926535512
46,3.69134550243552,-29.5,29.7104418911916,26.4098366465328,302.594231891822
46.5,3.69120711306452,-29.5,29.6964249552263,26.3980510666038,302.600528493071
47,3.69106872369352,-29.5,29.6824080192609,26.3862654866748,302.60682509432
47.5,3.69093033432252,-29.5,29.6683910832956,26.3744799067458,302.613121695569
48,3.69079194495152,-29.5,29.6543741473303,26.3626943268168,302.619418296818
48.5,3.69065377041791,-29.5,29.640357211365,26.3509087468878,302.625709138863
49,3.69051599948414,-29.5,29.6263402753997,26.3391231669588,302.631989156802
49.5,3.69037846284657,-29.5,29.6123233394344,26.3273375870298,302.638262549806
50,3.6902410410262,-29.5,29.5983064034691,26.3155520071009,302.644532646274
50.5,3.7613348524208,14.75,29.6053078629838,26.3214389042754,302.640247137378
51,3.76162205004428,14.75,29.6123163309664,26.3273316942399,302.63648102089
51.5,3.76188767217636,14.75,29.6193247989491,26.3332244842044,302.632721882512
52,3.76213598413124,14.75,29.6263332669317,26.3391172741689,302.628972627136
52.5,3.76237163897431,14.75,29.6333417349144,26.3450100641334,302.625233470142
53,3.76259499326928,14.75,29.640350202897,26.3509028540979,302.621507044693
53.5,3.76280878748343,14.75,29.6473586708797,26.3567956440623,302.617792781008
54,3.76301350675266,14.75,29.6543671388623,26.3626884340268,302.614092327738
54.5,3.76321064609693,14.75,29.661375606845,26.3685812239913,302.61040524215
55,3.76339965865391,14.75,29.6683840748277,26.3744740139558,302.606734798044
55.5,3.76358383475084,14.75,29.6753925428103,26.3803668039203,302.603075648053
56,3.76376233065146,14.75,29.682401010793,26.3862595938848,302.599430699738
56.5,3.76393579867237,14.75,29.6894094787756,26.3921523838493,302.595799585124
57,3.76410376012512,14.75,29.6964179467583,26.3980451738138,302.592185285281
57.5,3.76426728737351,14.75,29.7034264147409,26.4039379637783,302.588585976022
58,3.76442697506154,14.75,29.7104348827236,26.4098307537428,302.585000644157
58.5,3.76458306318972,14.75,29.7174433507062,26.4157235437073,302.581429293699
59,3.76473577257281,14.75,29.7244518186889,26.4216163336718,302.577871920334
59.5,3.7648851531303,14.75,29.7314602866716,26.4275091236363,302.57432923846
60,3.73590667324365,-3.66730936481628,29.7384635040726,26.4333974988593,302.570804454963
60.5,3.71821111236082,-14.75,29.7314644676653,26.4275126390577,302.572746752359
61,3.71806536635739,-14.75,29.7244559996827,26.4216198490932,302.57437677182
61.5,3.71793315568664,-14.75,29.7174475317,26.4157270591287,302.576015210151
62,3.71781099132534,-14.75,29.7104390637173,26.4098342691642,302.577660651121
62.5,3.7176967574353,-14.75,29.7034305957347,26.4039414791997,302.579312001894
63,3.71758853153422,-14.75,29.696422127752,26.3980486892352,302.580968031513
63.5,3.71748618953539,-14.75,29.6894136597694,26.3921558992707,302.582628763008
64,3.71738824570829,-14.75,29.6824051917867,26.3862631093062,302.584293042037
64.5,3.71729409835215,-14.75,29.6753967238041,26.3803703193417,302.585960357199
65,3.71720402796572,-14.75,29.6683882558214,26.3744775293772,302.587630823903
65.5,3.71711620203039,-14.75,29.6613797878388,26.3685847394127,302.589302975482
66,3.71703155518642,-14.75,29.6543713198561,26.3626919494482,302.590977395059
66.5,3.71694904998414,-14.75,29.6473628518734,26.3567991594837,302.592653237997
67,3.71686849928597,-14.75,29.6403543838908,26.3509063695192,302.594330294202
67.5,3.71678985003996,-14.75,29.6333459159081,26.3450135795547,302.596008421376
68,3.71671336887346,-14.75,29.6263374479255,26.3391207895902,302.597687514347
68.5,3.71663829257484,-14.75,29.6193289799428,26.3332279996257,302.59936706909
69,3.7165645335168,-14.75,29.6123205119602,26.3273352096612,302.60104696454
69.5,3.71649200712939,-14.75,29.6053120439775,26.3214424196967,302.602727083405
70,3.71642101306537,-14.75,29.5983035759949,26.3155496297322,302.604407258745
70.5,3.71635107635411,-14.75,29.5912951080122,26.3096568397677,302.606087283977
71,3.71628233256704,-14.75,29.5842866400296,26.3037640498032,302.607766940924
71.5,3.71621466480424,-14.75,29.5772781720469,26.2978712598388,302.609446181811
72,3.71614699704144,-14.75,29.5702697040642,26.2919784698743,302.611125422697
72.5,3.71608109552379,-14.75,29.5632612360816,26.2860856799098,302.612803315478
73,3.71601558219025,-14.75,29.5562527680989,26.2801928899453,302.614480911973
73.5,3.7159504459051,-14.75,29.5492443001163,26.2743000999808,302.616158024825
74,3.71588673427001,-14.75,29.5422358321336,26.2684073100163,302.617833310266
74.5,3.71582302263492,-14.75,29.535227364151,26.2625145200518,302.619508595708
75,3.7157602227982,-14.75,29.5282188961683,26.2566217300873,302.621182181972
75.5,3.71569803405744,-14.75,29.5212104281857,26.2507289401228,302.622854629433
76,3.71563584531669,-14.75,29.514201960203,26.2448361501583,302.624527076893
76.5,3.71557494255271,-14.75,29.5071934922204,26.2389433601938,302.626196294972
77,3.71551405516988,-14.75,29.5001850242377,26.2330505702293,302.627865474426
77.5,3.71545359190495,-14.75,29.493176556255,26.2271577802648,302.629533277427
78,3.71539382761426,-14.75,29.4861680882724,26.2212649903003,302.631198811945
78.5,3.71533406332357,-14.75,29.4791596202897,26.2153722003358,302.632864346463
79,3.7152750474821,-14.75,29.4721511523071,26.2094794103713,302.634526824471
79.5,3.71521625889391,-14.75,29.4651426843244,26.2035866204068,302.636188374423
80,3.71515760369751,-14.75,29.4581342163418,26.1976938304423,302.637849258581
80.5,3.71509966723009,-14.75,29.4511257483591,26.1918010404778,302.639506555364
81,3.71504173076266,-14.75,29.4441172803765,26.1859082505133,302.641163852147
81.5,3.71498420311247,-14.75,29.4371088123938,26.1800154605488,302.642818707197
82,3.71492701540229,-14.75,29.4301003444112,26.1741226705843,302.644471531895
82.5,3.71486982769211,-14.75,29.4230918764285,26.1682298806198,302.646124356594
83,3.7148132594777,-14.75,29.4160834084458,26.1623370906553,302.647772831816
83.5,3.71475673401269,-14.75,29.4090749404632,26.1564443006908,302.649421006896
84,3.71470039984253,-14.75,29.4020664724805,26.1505515107263,302.651067611706
84.5,3.71464446315606,-14.75,29.3950580044979,26.1446587207619,302.652710953717
85,3.71458852646958,-14.75,29.3880495365152,26.1387659307974,302.654354295728
85.5,3.71453313422374,-14.75,29.3810410685326,26.1328731408329,302.655992285246
86,3.71447795968063,-14.75,29.3740326005499,26.1269803508684,302.657628134491
86.5,3.71442278513752,-14.75,29.3670241325673,26.1210875609039,302.659263983736
87,3.71436761059441,-14.75,29.3600156645846,26.1151947709394,302.660899832981
87.5,3.7143124360513,-14.75,29.353007196602,26.1093019809749,302.662535682226
88,3.714257681973,-14.75,29.3459987286193,26.1034091910104,302.664166391906
88.5,3.71420335984762,-14.75,29.3389902606366,26.0975164010459,302.665791821596
89,3.71414903772225,-14.75,29.331981792654,26.0916236110814,302.667417251285
89.5,3.71409471559687,-14.75,29.3249733246713,26.0857308211169,302.669042680975
90,3.71404039347149,-14.75,29.3179648566887,26.0798380311524,302.670668110665
90.5,3.71398626166911,-14.75,29.310956388706,26.0739452411879,302.672290619573
91,3.71393263882796,-14.75,29.3039479207234,26.0680524512234,302.673905317737
91.5,3.71387901598681,-14.75,29.2969394527407,26.0621596612589,302.675520015901
92,3.71382539314566,-14.75,29.2899309847581,26.0562668712944,302.677134714065
92.5,3.71377177030451,-14.75,29.2829225167754,26.0503740813299,302.678749412229
93,3.71371817728966,-14.75,29.2759140487928,26.0444812913654,302.680363552222
93.5,3.71366513841775,-14.75,29.2689055808101,26.0385885014009,302.681967321952
94,3.71361209954585,-14.75,29.2618971128275,26.0326957114364,302.683571091681
94.5,3.71355906067395,-14.75,29.2548886448448,26.026802921472,302.68517486141
95,3.71350602180204,-14.75,29.2478801768621,26.0209101315075,302.686778631139
95.5,3.71345298293014,-14.75,29.2408717088795,26.015017341543,302.688382400869
96,3.7134003556388,-14.75,29.2338632408968,26.0091245515785,302.689976984503
96.5,3.71334781265787,-14.75,29.2268547729142,26.003231761614,302.691569686407
97,3.71329526967694,-14.75,29.2198463049315,25.9973389716495,302.693162388311
97.5,3.71324272669602,-14.75,29.2128378369489,25.991446181685,302.694755090216
98,3.71319018371509,-14.75,29.2058293689662,25.9855533917205,302.69634779212
98.5,3.71313790091388,-14.75,29.1988209009836,25.979660601756,302.697933698242
99,3.71308578523547,-14.75,29.1918124330009,25.9737678117915,302.69951523919
99.5,3.71303366955707,-14.75,29.1848039650182,25.967875021827,302.701096780137
100,3.71298155387866,-14.75,29.1777954970356,25.9619822318625,302.702678321084
100.5,3.71292943820026,-14.75,29.1707870290529,25.956089441898,302.704259862031
101,3.71287746733492,-14.75,29.1637785610703,25.9501966519335,302.705837053004
101.5,3.71282572508278,-14.75,29.1567700930876,25.944303861969,302.707407376771
102,3.71277398283064,-14.75,29.149761625105,25.9384110720045,302.708977700537
102.5,3.7127222405785,-14.75,29.1427531571223,25.93251828204,302.710548024303
103,3.71267049832636,-14.75,29.1357446891397,25.9266254920755,302.71211834807
103.5,3.7126188112486,-14.75,29.128736221157,25.920732702111,302.713686796849
104,3.71256739997164,-14.75,29.1217277531744,25.9148399121465,302.715245873108
104.5,3.71251598869468,-14.75,29.1147192851917,25.908947122182,302.716804949367
105,3.71246457741772,-14.75,29.107710817209,25.9030543322175,302.718364025626
105.5,3.71241316614077,-14.75,29.1007023492264,25.897161542253,302.719923101885
106,3.71236175486381,-14.75,29.0936938812437,25.8912687522885,302.721482178144
106.5,3.7123106246852,-14.75,29.0866854132611,25.8853759623241,302.723030633417
107,3.71225951067515,-14.75,29.0796769452784,25.8794831723596,302.724578477779
107.5,3.7122083966651,-14.75,29.0726684772958,25.8735903823951,302.726126322141
108,3.71215728265505,-14.75,29.0656600093131,25.8676975924306,302.727674166504
108.5,3.712106168645,-14.75,29.0586515413305,25.8618048024661,302.729222010866
109,3.71205525040861,-14.75,29.0516430733478,25.8559120125016,302.730761734341
109.5,3.71200440661153,-14.75,29.0446346053652,25.8500192225371,302.73229837
110,3.71195356281445,-14.75,29.0376261373825,25.8441264325726,302.733835005658
110.5,3.71190271901737,-14.75,29.0306176693998,25.8382336426081,302.735371641317
111,3.71185187522029,-14.75,29.0236092014172,25.8323408526436,302.736908276976
111.5,3.7118012145897,-14.75,29.0166007334345,25.8264480626791,302.738436508947
112,3.71175073463475,-14.75,29.0095922654519,25.8205552727146,302.739956451513
112.5,3.7117002546798,-14.75,29.0025837974692,25.8146624827501,302.741476394078
113,3.71164977472485,-14.75,28.9955753294866,25.8087696927856,302.742996336643
113.5,3.7115992947699,-14.75,28.9885668615039,25.8028769028211,302.744516279208
114,3.71154881481495,-14.75,28.9815583935213,25.7969841128566,302.746036221773
114.5,3.71149833486001,-14.75,28.9745499255386,25.7910913228921,302.747556164338
115,3.71144785490506,-14.75,28.967541457556,25.7851985329276,302.749076106903
115.5,3.71139737495011,-14.75,28.9605329895733,25.7793057429631,302.750596049468
116,3.71134689499516,-14.75,28.9535245215906,25.7734129529986,302.752115992033
116.5,3.71129644150216,-14.75,28.946516053608,25.7675201630341,302.75363458087
117,3.71124639367321,-14.75,28.9395075856253,25.7616273730696,302.755132416924
117.5,3.71119634584427,-14.75,28.9324991176427,25.7557345831051,302.756630252979
118,3.71114629801533,-14.75,28.92549064966,25.7498417931406,302.758128089033
118.5,3.71109625018639,-14.75,28.9184821816774,25.7439490031761,302.759625925088
119,3.71104620235744,-14.75,28.9114737136947,25.7380562132117,302.761123761142
119.5,3.7109961545285,-14.75,28.9044652457121,25.7321634232472,302.762621597197
120,3.71094610669956,-14.75,28.8974567777294,25.7262706332827,302.764119433251
120.5,3.71089605887061,-14.75,28.8904483097468,25.7203778433182,302.765617269306
121,3.71084601104167,-14.75,28.8834398417641,25.7144850533537,302.76711510536
121.5,3.71079596321273,-14.75,28.8764313737814,25.7085922633892,302.768612941415
122,3.71074615354497,-14.75,28.8694229057988,25.7026994734247,302.770097262515
122.5,3.71069649043626,-14.75,28.8624144378161,25.6968066834602,302.771573266817
123,3.71064682732755,-14.75,28.8554059698335,25.6909138934957,302.773049271118
123.5,3.71059716421885,-14.75,28.8483975018508,25.6850211035312,302.774525275419
124,3.71054750111014,-14.75,28.8413890338682,25.6791283135667,302.77600127972
124.5,3.71049783800143,-14.75,28.8343805658855,25.6732355236022,302.777477284022
125,3.71044817489272,-14.75,28.8273720979029,25.6673427336377,302.778953288323
125.5,3.71039851178401,-14.75,28.8203636299202,25.6614499436732,302.780429292624
126,3.71034884867531,-14.75,28.8133551619376,25.6555571537087,302.781905296925
126.5,3.7102991855666,-14.75,28.8063466939549,25.6496643637442,302.783381301227
127,3.71024958434827,-14.75,28.7993382259722,25.6437715737797,302.78485350339
