time,voltage,curr_density,SOC,SOC_est,temp
0,3.88950186736514,-29.5,72.9999999999999,62.8081299999999,286
0.5,3.88909295641586,-29.5,72.9859830640347,62.796344420071,286.004288255758
1,3.88871403979748,-29.5,72.9719661280694,62.784558840142,286.008448099525
1.5,3.88835240028658,-29.5,72.9579491921041,62.772773260213,286.012646967116
2,3.88800373155897,-29.5,72.9439322561388,62.760987680284,286.016879315241
2.5,3.88766692189118,-29.5,72.9299153201735,62.749202100355,286.021145153868
3,3.88733926269654,-29.5,72.9158983842082,62.7374165204261,286.025438704933
3.5,3.88701984270188,-29.5,72.9018814482428,62.7256309404971,286.029758547776
4,3.88670783647302,-29.5,72.8878645122775,62.7138453605681,286.034103146031
4.5,3.88640351339294,-29.5,72.8738475763122,62.7020597806391,286.038474586043
5,3.88610517305923,-29.5,72.8598306403469,62.6902742007101,286.042867790957
5.5,3.88581233919805,-29.5,72.8458137043816,62.6784886207811,286.047281653552
6,3.88552609353659,-29.5,72.8317967684163,62.6667030408521,286.051721081731
6.5,3.8852423640281,-29.5,72.817779832451,62.6549174609231,286.056170491384
7,3.88496497054177,-29.5,72.8037628964857,62.6431318809941,286.060645511772
7.5,3.88469103385271,-29.5,72.7897459605204,62.6313463010651,286.065134985204
8,3.88442024126021,-29.5,72.775729024555,62.6195607211361,286.069637604262
8.5,3.88415483015162,-29.5,72.7617120885897,62.6077751412071,286.074163365923
9,3.88389152770249,-29.5,72.7476951526244,62.5959895612781,286.078698349573
9.5,3.88363208702715,-29.5,72.7336782166591,62.5842039813492,286.08325032645
10,3.88337592979403,-29.5,72.7196612806938,62.5724184014202,286.087817026206
10.5,3.88312163130688,-29.5,72.7056443447285,62.5606328214912,286.092392075712
11,3.88287164889203,-29.5,72.6916274087632,62.5488472415622,286.096986790453
11.5,3.88262344839675,-29.5,72.6776104727979,62.5370616616332,286.101589722385
12,3.88237763866845,-29.5,72.6635935368326,62.5252760817042,286.106203679162
12.5,3.8821349489301,-29.5,72.6495766008673,62.5134905017752,286.110832154078
13,3.88189367794616,-29.5,72.635559664902,62.5017049218462,286.115467253163
13.5,3.88165531936543,-29.5,72.6215427289367,62.4899193419172,286.120116000637
14,3.88141975366086,-29.5,72.6075257929714,62.4781337619882,286.124777902123
14.5,3.88118630297204,-29.5,72.593508857006,62.4663481820592,286.129449765002
15,3.88095285228322,-29.5,72.5794919210407,62.4545626021303,286.134121627882
15.5,3.88072133897437,-29.5,72.5654749850754,62.4427770222013,286.138802635751
16,3.88049375200516,-29.5,72.5514580491101,62.4309914422723,286.14350217707
16.5,3.88026616503594,-29.5,72.5374411131448,62.4192058623433,286.148201718389
17,3.88003905300815,-29.5,72.5234241771795,62.4074202824143,286.152903491708
17.5,3.8798166428403,-29.5,72.5094072412142,62.3956347024853,286.157627361535
18,3.87959423267244,-29.5,72.4953903052489,62.3838491225563,286.162351231362
18.5,3.87937182250459,-29.5,72.4813733692836,62.3720635426273,286.167075101189
19,3.8791533434239,-29.5,72.4673564333183,62.3602779626983,286.171817223088
19.5,3.87893554132809,-29.5,72.453339497353,62.3484923827693,286.176562488235
20,3.87871773923227,-29.5,72.4393225613877,62.3367068028403,286.181307753382
20.5,3.87850247441355,-29.5,72.4253056254223,62.3249212229114,286.186064580357
21,3.87828880179774,-29.5,72.411288689457,62.3131356429824,286.19082866266
21.5,3.87807512918193,-29.5,72.3972717534917,62.3013500630534,286.195592744963
22,3.87786285532111,-29.5,72.3832548175264,62.2895644831244,286.200363040396
22.5,3.87765290504402,-29.5,72.3692378815611,62.2777789031954,286.205143656958
23,3.87744295476693,-29.5,72.3552209455958,62.2659933232664,286.209924273518
23.5,3.87723346666622,-29.5,72.3412040096305,62.2542077433374,286.214706879112
24,3.8770268870816,-29.5,72.3271870736652,62.2424221634084,286.219502001856
24.5,3.87682030749697,-29.5,72.3131701376999,62.2306365834794,286.2242971246
25,3.87661372791235,-29.5,72.2991532017346,62.2188510035504,286.229092247345
25.5,3.87640990262437,-29.5,72.2851362657692,62.2070654236214,286.233898776561
26,3.87620638861781,-29.5,72.271119329804,62.1952798436924,286.238706594899
26.5,3.87600287461126,-29.5,72.2571023938386,62.1834942637635,286.243514413237
27,3.87580120749118,-29.5,72.2430854578733,62.1717086838345,286.248329547213
27.5,3.87560049263664,-29.5,72.229068521908,62.1599231039055,286.253148453175
28,3.8753997777821,-29.5,72.2150515859427,62.1481375239765,286.257967359137
28.5,3.87520014333077,-29.5,72.2010346499774,62.1363519440475,286.262790319083
29,3.8750019938703,-29.5,72.1870177140121,62.1245663641185,286.267618851141
29.5,3.87480384440984,-29.5,72.1730007780468,62.1127807841895,286.272447383199
30,3.87460612535049,-29.5,72.1589838420815,62.1009952042605,286.277277433092
30.5,3.87441033440592,-29.5,72.1449669061162,62.0892096243315,286.282114282596
31,3.87421454346135,-29.5,72.1309499701509,62.0774240444025,286.2869511321
31.5,3.87401875251679,-29.5,72.1169330341855,62.0656384644735,286.291787981605
32,3.87382596439653,-29.5,72.1029160982202,62.0538528845445,286.296634421954
32.5,3.87363335497914,-29.5,72.0888991622549,62.0420673046156,286.301481433071
33,3.87344074556175,-29.5,72.0748822262896,62.0302817246866,286.306328444187
33.5,3.87324813614435,-29.5,72.0608652903243,62.0184961447576,286.311175455304
34,3.87305552672696,-29.5,72.046848354359,62.0067105648286,286.31602246642
34.5,3.87286291730957,-29.5,72.0328314183937,61.9949249848996,286.320869477536
35,3.8726720510014,-29.5,72.0188144824284,61.9831394049706,286.32572129627
35.5,3.87248317801567,-29.5,72.0047975464631,61.9713538250416,286.330578612726
36,3.87229430502994,-29.5,71.9907806104977,61.9595682451126,286.335435929182
36.5,3.87210543204422,-29.5,71.9767636745324,61.9477826651836,286.340293245638
37,3.87191655905849,-29.5,71.9627467385671,61.9359970852546,286.345150562094
37.5,3.87172768607276,-29.5,71.9487298026018,61.9242115053256,286.35000787855
38,3.87153881308703,-29.5,71.9347128666365,61.9124259253966,286.354865195006
38.5,3.8713531376243,-29.5,71.9206959306712,61.9006403454677,286.359729472027
39,3.87116749706181,-29.5,71.9066789947059,61.8888547655387,286.364593825021
39.5,3.87098185649932,-29.5,71.8926620587406,61.8770691856097,286.369458178016
40,3.87079621593683,-29.5,71.8786451227753,61.8652836056807,286.37432253101
40.5,3.87061057537434,-29.5,71.86462818681,61.8534980257517,286.379186884004
41,3.87042493481186,-29.5,71.8506112508447,61.8417124458227,286.384051236998
41.5,3.87024073952373,-29.5,71.8365943148794,61.8299268658937,286.388917822441
42,3.87005792237454,-29.5,71.8225773789141,61.8181412859647,286.39378653663
42.5,3.86987510522535,-29.5,71.8085604429488,61.8063557060357,286.39865525082
43,3.86969228807616,-29.5,71.7945435069834,61.7945701261067,286.403523965009
43.5,3.86950947092698,-29.5,71.7805265710181,61.7827845461778,286.408392679199
44,3.86932665377779,-29.5,71.7665096350528,61.7709989662488,286.413261393388
44.5,3.86914392263124,-29.5,71.7524926990875,61.7592133863198,286.418130183469
45,3.86896359290218,-29.5,71.7384757631222,61.7474278063908,286.423001092657
45.5,3.86878326317312,-29.5,71.7244588271569,61.7356422264618,286.427872001845
46,3.86860293344406,-29.5,71.7104418911916,61.7238566465328,286.432742911033
46.5,3.868422603715,-29.5,71.6964249552263,61.7120710666038,286.43761382022
47,3.86824227398595,-29.5,71.682408019261,61.7002854866748,286.442484729408
47.5,3.86806194425689,-29.5,71.6683910832957,61.6884999067458,286.447355638595
48,3.86788240591842,-29.5,71.6543741473303,61.6767143268168,286.452226836422
48.5,3.86770349633284,-29.5,71.640357211365,61.6649287468878,286.457098263569
49,3.86752501545162,-29.5,71.6263402753997,61.6531431669588,286.461969700718
49.5,3.86734690381022,-29.5,71.6123233394344,61.6413575870298,286.466841104283
50,3.92586714611657,4.0873848656347,71.5983170427852,61.6295809527442,286.471708772769
50.5,3.94491488592797,14.75,71.6053189597235,61.6354682345251,286.469331776157
51,3.94528572813868,14.75,71.6123274277062,61.6413610244896,286.467234689279
51.5,3.94563269494796,14.75,71.6193358956888,61.6472538144541,286.465136364096
52,3.94596028928523,14.75,71.6263443636714,61.6531466044186,286.463040548995
52.5,3.94627279131989,14.75,71.6333528316541,61.6590393943831,286.460949357714
53,3.9465717192142,14.75,71.6403612996367,61.6649321843476,286.458864564846
53.5,3.94685868001072,14.75,71.6473697676194,61.6708249743121,286.45678742931
54,3.94713351584242,14.75,71.6543782356021,61.6767177642766,286.454720372386
54.5,3.94740034998629,14.75,71.6613867035847,61.6826105542411,286.452661332963
55,3.94765856985762,14.75,71.6683951715674,61.6885033442056,286.45061206123
55.5,3.9479089482504,14.75,71.67540363955,61.6943961341701,286.448572944932
56,3.94815214681741,14.75,71.6824121075327,61.7002889241346,286.446544294483
56.5,3.94838873794638,14.75,71.6894205755154,61.7061817140991,286.444526357561
57,3.94861915663758,14.75,71.696429043498,61.7120745040636,286.442519445653
57.5,3.94884354828002,14.75,71.7034375114807,61.717967294028,286.440524368101
58,3.94906273382043,14.75,71.7104459794633,61.7238600839925,286.438540413627
58.5,3.94927705408625,14.75,71.717454447446,61.7297528739571,286.436567637051
59,3.94948681588089,14.75,71.7244629154286,61.7356456639215,286.434606065642
59.5,3.9496925873487,14.75,71.7314713834113,61.741538453886,286.432654927269
60,3.91274821853428,-6.64869600004187,71.7384737508718,61.7474261144705,286.430716645992
60.5,3.89848199738011,-14.75,71.7314696178675,61.7415369693992,286.431811263385
61,3.89830421165406,-14.75,71.7244611498849,61.7356441794347,286.432754865263
61.5,3.89813977534648,-14.75,71.7174526819022,61.7297513894702,286.433710961347
62,3.89798569004292,-14.75,71.7104442139196,61.7238585995057,286.434678501975
62.5,3.89783889937721,-14.75,71.7034357459369,61.7179658095412,286.435655034907
63,3.89769940232812,-14.75,71.6964272779543,61.7120730195767,286.436641329907
63.5,3.89756508110836,-14.75,71.6894188099716,61.7061802296122,286.437635082976
64,3.89743618024662,-14.75,71.682410341989,61.7002874396477,286.43863716191
64.5,3.8973111128743,-14.75,71.6754018740063,61.6943946496832,286.439645476936
65,3.8971906458099,-14.75,71.6683934060236,61.6885018597187,286.440661667233
65.5,3.89707298603663,-14.75,71.661384938041,61.6826090697542,286.441682913243
66,3.89695795768901,-14.75,71.6543764700583,61.6767162797897,286.442708996025
66.5,3.89684554974396,-14.75,71.6473680020757,61.6708234898253,286.443740030227
67,3.89673618591776,-14.75,71.640359534093,61.6649306998608,286.444777083903
67.5,3.89662868029845,-14.75,71.6333510661104,61.6590379098963,286.445817952915
68,3.896522929207,-14.75,71.6263425981277,61.6531451199318,286.446862482754
68.5,3.89641905925565,-14.75,71.6193341301451,61.6472523299673,286.447911026499
69,3.89631716839032,-14.75,71.6123256621624,61.6413595400028,286.448963908355
69.5,3.89621658638311,-14.75,71.6053171941797,61.6354667500383,286.450019714045
70,3.89611724905203,-14.75,71.5983087261971,61.6295739600738,286.451078328188
70.5,3.89601933858376,-14.75,71.5913002582144,61.6236811701093,286.452140211622
71,3.89592278125322,-14.75,71.5842917902318,61.6177883801448,286.453205269473
71.5,3.89582719003643,-14.75,71.5772833222491,61.6118955901803,286.454272617976
72,3.89573261092194,-14.75,71.5702748542665,61.6060028002158,286.455342392112
72.5,3.8956396747086,-14.75,71.5632663862838,61.6001100102513,286.456416176508
73,3.89554673849526,-14.75,71.5562579183012,61.5942172202868,286.457489960905
73.5,3.89545479178139,-14.75,71.5492494503185,61.5883244303223,286.458566165454
74,3.89536407217481,-14.75,71.5422409823359,61.5824316403578,286.459645371305
74.5,3.89527335256823,-14.75,71.5352325143532,61.5765388503933,286.460724577157
75,3.89518403570276,-14.75,71.5282240463706,61.5706460604288,286.46180724575
75.5,3.89509519443157,-14.75,71.5212155783879,61.5647532704643,286.462891088374
76,3.89500642919835,-14.75,71.5142071104053,61.5588604804998,286.463975120631
76.5,3.89491919898805,-14.75,71.5071986424226,61.5529676905354,286.465062981142
77,3.89483196877775,-14.75,71.5001901744399,61.5470749005708,286.466150841653
77.5,3.8947452242702,-14.75,71.4931817064573,61.5411821106064,286.467239915639
78,3.89465939138455,-14.75,71.4861732384746,61.5352893206419,286.468331267211
78.5,3.89457355849891,-14.75,71.479164770492,61.5293965306774,286.469422618783
79,3.89448851836669,-14.75,71.4721563025093,61.5235037407129,286.470515913949
79.5,3.89440390888087,-14.75,71.4651478345267,61.5176109507484,286.47161026493
80,3.89431929939505,-14.75,71.458139366544,61.5117181607839,286.472704615912
80.5,3.89423571377066,-14.75,71.4511308985613,61.5058253708194,286.473801407974
81,3.89415218386396,-14.75,71.4441224305787,61.4999325808549,286.474898332879
81.5,3.89406889276683,-14.75,71.437113962596,61.4940397908904,286.475995814135
82,3.89398632275676,-14.75,71.4301054946134,61.4881470009259,286.4770949753
82.5,3.89390375274668,-14.75,71.4230970266307,61.4822542109614,286.478194136464
83,3.89382165493886,-14.75,71.4160885586481,61.4763614209969,286.479294361041
83.5,3.89373994475387,-14.75,71.4090800906654,61.4704686310324,286.480395458555
84,3.89365823456887,-14.75,71.4020716226828,61.4645758410679,286.481496556069
84.5,3.89357718314447,-14.75,71.3950631547001,61.4586830511034,286.482599058597
85,3.89349624835379,-14.75,71.3880546867175,61.4527902611389,286.483701809882
85.5,3.89341546730814,-14.75,71.3810462187348,61.4468974711744,286.484804866145
86,3.89333555762955,-14.75,71.3740377507522,61.4410046812099,286.485909650905
86.5,3.89325564795096,-14.75,71.3670292827695,61.4351118912454,286.487014435666
87,3.89317573827237,-14.75,71.3600208147869,61.4292191012809,286.488119220426
87.5,3.89309582859378,-14.75,71.3530123468042,61.4233263113164,286.489224005187
88,3.89301591891519,-14.75,71.3460038788216,61.417433521352,286.490328789947
88.5,3.89293689604735,-14.75,71.3389954108389,61.4115407313875,286.491435089471
89,3.89285816756504,-14.75,71.3319869428562,61.405647941423,286.492541891835
89.5,3.89277943908274,-14.75,71.3249784748736,61.3997551514585,286.493648694199
90,3.89270071060043,-14.75,71.3179700068909,61.393862361494,286.494755496564
90.5,3.89262198211812,-14.75,71.3109615389083,61.3879695715295,286.495862298928
91,3.89254360744771,-14.75,71.3039530709256,61.382076781565,286.496969587755
91.5,3.89246588534778,-14.75,71.2969446029429,61.3761839916005,286.498077773813
92,3.89238816324786,-14.75,71.2899361349603,61.370291201636,286.499185959871
92.5,3.89231044114793,-14.75,71.2829276669776,61.3643984116715,286.500294145929
93,3.892232719048,-14.75,71.275919198995,61.358505621707,286.501402331987
93.5,3.89215499694807,-14.75,71.2689107310123,61.3526128317425,286.502510518045
94,3.89207810620402,-14.75,71.2619022630297,61.346720041778,286.503619550173
94.5,3.89200125704448,-14.75,71.254893795047,61.3408272518135,286.504728624622
95,3.89192440788494,-14.75,71.2478853270644,61.334934461849,286.50583769907
95.5,3.8918475587254,-14.75,71.2408768590817,61.3290416718845,286.506946773519
96,3.89177070956586,-14.75,71.2338683910991,61.32314888192,286.508055847967
96.5,3.89169428621268,-14.75,71.2268599231164,61.3172560919555,286.509165177781
97,3.89161820682752,-14.75,71.2198514551338,61.311363301991,286.510274713881
97.5,3.89154212744235,-14.75,71.2128429871511,61.3054705120265,286.511384249981
98,3.89146604805719,-14.75,71.2058345191685,61.299577722062,286.512493786081
98.5,3.89138996867202,-14.75,71.1988260511858,61.2936849320975,286.513603322181
99,3.89131399524155,-14.75,71.1918175832031,61.287792142133,286.514712875796
99.5,3.89123860408827,-14.75,71.1848091152205,61.2818993521685,286.51582252566
100,3.891163212935,-14.75,71.1778006472378,61.276006562204,286.516932175524
100.5,3.89108782178172,-14.75,71.1707921792552,61.2701137722395,286.518041825388
101,3.89101243062845,-14.75,71.1637837112725,61.2642209822751,286.519151475252
101.5,3.89093703947517,-14.75,71.1567752432899,61.2583281923106,286.520261125116
102,3.89086211798168,-14.75,71.1497667753072,61.2524354023461,286.521370646416
102.5,3.89078734910314,-14.75,71.1427583073246,61.2465426123816,286.52248012594
103,3.8907125802246,-14.75,71.1357498393419,61.2406498224171,286.523589605463
103.5,3.89063781134606,-14.75,71.1287413713593,61.2347570324526,286.524699084986
104,3.89056304246752,-14.75,71.1217329033766,61.2288642424881,286.52580856451
104.5,3.8904884757028,-14.75,71.1147244353939,61.2229714525236,286.52691789444
105,3.8904142752921,-14.75,71.1077159674113,61.2170786625591,286.528026953216
105.5,3.89034007488141,-14.75,71.1007074994286,61.2111858725946,286.529136011992
106,3.89026587447072,-14.75,71.093699031446,61.2052930826301,286.530245070768
106.5,3.89019167406003,-14.75,71.0866905634633,61.1994002926656,286.531354129544
107,3.89011747364933,-14.75,71.0796820954806,61.1935075027011,286.53246318832
107.5,3.8900437747898,-14.75,71.072673627498,61.1876147127366,286.533571635378
108,3.88997009882989,-14.75,71.0656651595154,61.1817219227721,286.534680054507
108.5,3.88989642286998,-14.75,71.0586566915327,61.1758291328076,286.535788473635
109,3.88982274691007,-14.75,71.05164822355,61.1699363428431,286.536896892764
109.5,3.88974907095016,-14.75,71.0446397555674,61.1640435528786,286.538005311893
110,3.88967566697283,-14.75,71.0376312875847,61.1581507629141,286.539113268739
110.5,3.8896024791975,-14.75,71.0306228196021,61.1522579729496,286.54022085811
111,3.88952929142217,-14.75,71.0236143516194,61.1463651829851,286.541328447482
111.5,3.88945610364684,-14.75,71.0166058836368,61.1404723930206,286.542436036853
112,3.88938291587151,-14.75,71.0095974156541,61.1345796030561,286.543543626225
112.5,3.88930983461409,-14.75,71.0025889476715,61.1286868130916,286.544650973652
113,3.88923732132166,-14.75,70.9955804796888,61.1227940231271,286.545757031004
113.5,3.88916480802923,-14.75,70.9885720117062,61.1169012331627,286.546863088355
114,3.88909229473679,-14.75,70.9815635437235,61.1110084431982,286.547969145707
114.5,3.88901978144436,-14.75,70.9745550757409,61.1051156532337,286.549075203059
115,3.88894726815193,-14.75,70.9675466077582,61.0992228632692,286.55018126041
115.5,3.8888747548595,-14.75,70.9605381397755,61.0933300733047,286.551287317762
116,3.88880224156707,-14.75,70.9535296717929,61.0874372833402,286.552393375114
116.5,3.88872972827463,-14.75,70.9465212038102,61.0815444933757,286.553499432466
117,3.8886572149822,-14.75,70.9395127358276,61.0756517034112,286.554605489817
117.5,3.88858470168977,-14.75,70.9325042678449,61.0697589134467,286.555711547169
118,3.88851248452912,-14.75,70.9254957998623,61.0638661234822,286.556816717934
118.5,3.88844079493558,-14.75,70.9184873318796,61.0579733335177,286.557920309221
119,3.88836910534204,-14.75,70.911478863897,61.0520805435532,286.559023900508
119.5,3.8882974157485,-14.75,70.9044703959143,61.0461877535887,286.560127491795
120,3.88822572615496,-14.75,70.8974619279316,61.0402949636242,286.561231083082
120.5,3.88815403656142,-14.75,70.890453459949,61.0344021736597,286.562334674369
121,3.88808234696788,-14.75,70.8834449919663,61.0285093836952,286.563438265656
121.5,3.88801065737434,-14.75,70.8764365239837,61.0226165937307,286.564541856943
122,3.8879389677808,-14.75,70.869428056001,61.0167238037662,286.56564544823
122.5,3.88786727818726,-14.75,70.8624195880184,61.0108310138017,286.566749039517
123,3.88779558859372,-14.75,70.8554111200357,61.0049382238372,286.567852630804
123.5,3.88772432237419,-14.75,70.8484026520531,60.9990454338727,286.568954624291
124,3.88765338731827,-14.75,70.8413941840704,60.9931526439082,286.570055367976
124.5,3.88758245226235,-14.75,70.8343857160878,60.9872598539437,286.571156111661
125,3.88751151720643,-14.75,70.8273772481051,60.9813670639792,286.572256855347
125.5,3.88744058215051,-14.75,70.8203687801224,60.9754742740147,286.573357599032
126,3.88736964709459,-14.75,70.8133603121398,60.9695814840502,286.574458342717
126.5,3.88729871203867,-14.75,70.8063518441571,60.9636886940857,286.575559086403
127,3.88722777698275,-14.75,70.7993433761745,60.9577959041213,286.576659830088
