time,voltage,curr_density,SOC,SOC_est,temp
0,3.71161295074664,-29.5,32,28.33492,304
0.5,3.71128827163592,-29.5,31.9859830640347,28.323134420071,304.006595673717
1,3.71099313701534,-29.5,31.9719661280694,28.311348840142,304.012883561059
1.5,3.71071519945535,-29.5,31.9579491921041,28.299563260213,304.019193544165
2,3.71045099559309,-29.5,31.9439322561388,28.287777680284,304.02552301974
2.5,3.71019677673722,-29.5,31.9299153201734,28.275992100355,304.031867619177
3,3.70995217070825,-29.5,31.9158983842081,28.264206520426,304.038227407822
3.5,3.70971494862822,-29.5,31.9018814482428,28.2524209404971,304.044599276384
4,3.70948484600382,-29.5,31.8878645122775,28.2406353605681,304.050983040362
4.5,3.70926069256844,-29.5,31.8738475763122,28.2288497806391,304.057376858167
5,3.70904208363336,-29.5,31.8598306403469,28.2170642007101,304.063780078342
5.5,3.70882843119992,-29.5,31.8458137043816,28.2052786207811,304.070191664282
6,3.70861867957613,-29.5,31.8317967684163,28.1934930408521,304.07660975262
6.5,3.70841258704083,-29.5,31.817779832451,28.1817074609231,304.083033860259
7,3.7082107178243,-29.5,31.8037628964857,28.1699218809941,304.089464718109
7.5,3.70801248993128,-29.5,31.7897459605204,28.1581363010651,304.095901132805
8,3.70781705455905,-29.5,31.7757290245551,28.1463507211361,304.10234163827
8.5,3.70762427271795,-29.5,31.7617120885898,28.1345651412072,304.108785901764
9,3.7074345029312,-29.5,31.7476951526244,28.1227795612782,304.115234199399
9.5,3.70724757625203,-29.5,31.7336782166591,28.1109939813492,304.121685949172
10,3.70706276491607,-29.5,31.7196612806938,28.0992084014202,304.128140045153
10.5,3.70687997936133,-29.5,31.7056443447285,28.0874228214912,304.134596235023
11,3.70669943816919,-29.5,31.6916274087632,28.0756372415622,304.141054502435
11.5,3.70652227623093,-29.5,31.6776104727979,28.0638516616332,304.147515144322
12,3.7063455630438,-29.5,31.6635935368326,28.0520660817042,304.153976101529
12.5,3.70616991973841,-29.5,31.6495766008673,28.0402805017752,304.160437468911
13,3.70599772652665,-29.5,31.635559664902,28.0284949218462,304.166900159006
13.5,3.70582553331488,-29.5,31.6215427289367,28.0167093419172,304.173362849101
14,3.70565566482243,-29.5,31.6075257929714,28.0049237619882,304.179825408148
14.5,3.7054874076098,-29.5,31.593508857006,27.9931381820592,304.186287876365
15,3.70531915039717,-29.5,31.5794919210407,27.9813526021303,304.192750344582
15.5,3.70515416020111,-29.5,31.5654749850754,27.9695670222013,304.199211017608
16,3.70498936176193,-29.5,31.5514580491101,27.9577814422723,304.205671585266
16.5,3.70482547741748,-29.5,31.5374411131448,27.9459958623433,304.21213116001
17,3.70466374138988,-29.5,31.5234241771795,27.9342102824143,304.218588401194
17.5,3.70450200536228,-29.5,31.5094072412142,27.9224247024853,304.225045642378
18,3.70434204939127,-29.5,31.4953903052489,27.9106391225563,304.231499892016
18.5,3.70418304176357,-29.5,31.4813733692836,27.8988535426273,304.237952547878
19,3.70402404964359,-29.5,31.4673564333183,27.8870679626983,304.244405167532
19.5,3.70386748532294,-29.5,31.453339497353,27.8752823827693,304.250852118836
20,3.70371092100228,-29.5,31.4393225613876,27.8634968028403,304.25729907014
20.5,3.70355514898996,-29.5,31.4253056254223,27.8517112229114,304.263743597311
21,3.70340078383808,-29.5,31.411288689457,27.8399256429824,304.270183820074
21.5,3.7032464186862,-29.5,31.3972717534917,27.8281400630534,304.276624042837
22,3.70309347402323,-29.5,31.3832548175264,27.8163544831244,304.283058838164
22.5,3.70294109777912,-29.5,31.3692378815611,27.8045689031954,304.289491461664
23,3.70278884462782,-29.5,31.3552209455958,27.7927833232664,304.295923516451
23.5,3.70263827499162,-29.5,31.3412040096305,27.7809977433374,304.302347793067
24,3.70248770535542,-29.5,31.3271870736652,27.7692121634084,304.308772069682
24.5,3.7023381497781,-29.5,31.3131701376999,27.7574265834794,304.315190501539
25,3.70218998276056,-29.5,31.2991532017345,27.7456410035504,304.321600930115
25.5,3.70204181574303,-29.5,31.2851362657692,27.7338554236214,304.328011358692
26,3.70189364872549,-29.5,31.2711193298039,27.7220698436924,304.334421787268
26.5,3.70174548170795,-29.5,31.2571023938386,27.7102842637635,304.340832215844
27,3.70159767567241,-29.5,31.2430854578733,27.6984986838345,304.347240009658
27.5,3.70145228709556,-29.5,31.229068521908,27.6867131039055,304.353630158737
28,3.70130689851871,-29.5,31.2150515859427,27.6749275239765,304.360020307816
28.5,3.70116150994186,-29.5,31.2010346499774,27.6631419440475,304.366410456895
29,3.70101612136502,-29.5,31.1870177140121,27.6513563641185,304.372800605974
29.5,3.70087073278817,-29.5,31.1730007780468,27.6395707841895,304.379190755053
30,3.70072732704518,-29.5,31.1589838420815,27.6277852042605,304.385562415338
30.5,3.70058430523702,-29.5,31.1449669061161,27.6159996243315,304.39193049565
31,3.70044128342887,-29.5,31.1309499701508,27.6042140444025,304.398298575962
31.5,3.70029826162072,-29.5,31.1169330341855,27.5924284644735,304.404666656274
32,3.70015523981256,-29.5,31.1029160982202,27.5806428845445,304.411034736586
32.5,3.70001333292738,-29.5,31.0888991622549,27.5688573046156,304.417389990591
33,3.69987235445182,-29.5,31.0748822262896,27.5570717246866,304.423734563978
33.5,3.69973137597625,-29.5,31.0608652903243,27.5452861447576,304.430079137364
34,3.69959039750069,-29.5,31.046848354359,27.5335005648286,304.436423710751
34.5,3.69944941902512,-29.5,31.0328314183937,27.5217149848996,304.442768284138
35,3.69930889344788,-29.5,31.0188144824284,27.5099294049706,304.449106615621
35.5,3.69916970156759,-29.5,31.0047975464631,27.4981438250416,304.455426565918
36,3.6990305096873,-29.5,30.9907806104977,27.4863582451126,304.461746516216
36.5,3.69889131780701,-29.5,30.9767636745324,27.4745726651836,304.468066466513
37,3.69875212592672,-29.5,30.9627467385671,27.4627870852546,304.47438641681
37.5,3.69861293404643,-29.5,30.9487298026018,27.4510015053256,304.480706367108
38,3.69847526170844,-29.5,30.9347128666365,27.4392159253966,304.487001816336
38.5,3.69833765045128,-29.5,30.9206959306712,27.4274303454677,304.493296280698
39,3.69820003919413,-29.5,30.9066789947059,27.4156447655387,304.499590745061
39.5,3.69806242793697,-29.5,30.8926620587406,27.4038591856097,304.505885209423
40,3.69792481667981,-29.5,30.8786451227753,27.3920736056807,304.512179673785
40.5,3.69778815088072,-29.5,30.86462818681,27.3802880257517,304.518456647645
41,3.69765195241031,-29.5,30.8506112508447,27.3685024458227,304.524724976157
41.5,3.69751575393991,-29.5,30.8365943148793,27.3567168658937,304.530993304669
42,3.6973795554695,-29.5,30.822577378914,27.3449312859647,304.537261633182
42.5,3.6972433569991,-29.5,30.8085604429487,27.3331457060357,304.543529961694
43,3.69710763936506,-29.5,30.7945435069834,27.3213601261067,304.54978823693
43.5,3.69697271607416,-29.5,30.7805265710181,27.3095745461777,304.556029904125
44,3.69683779278326,-29.5,30.7665096350528,27.2977889662488,304.562271571319
44.5,3.69670286949236,-29.5,30.7524926990875,27.2860033863198,304.568513238514
45,3.69656794620146,-29.5,30.7384757631222,27.2742178063908,304.574754905709
45.5,3.69643312156363,-29.5,30.7244588271569,27.2624322264618,304.580994270762
46,3.69629935982675,-29.5,30.7104418911916,27.2506466465328,304.587208832242
46.5,3.69616559808987,-29.5,30.6964249552263,27.2388610666038,304.593423393723
47,3.69603183635298,-29.5,30.6824080192609,27.2270754866748,304.599637955203
47.5,3.6958980746161,-29.5,30.6683910832956,27.2152899067458,304.605852516683
48,3.69576431287922,-29.5,30.6543741473303,27.2035043268168,304.612067078164
48.5,3.69563109050713,-29.5,30.640357211365,27.1917187468878,304.61826806981
49,3.69549810125585,-29.5,30.6263402753997,27.1799331669588,304.624463084841
49.5,3.69536537233042,-29.5,30.6123233394344,27.1681475870298,304.630651182081
50,3.69523276502473,-29.4999999993712,30.5983064034691,27.1563620071008,304.636836016626
50.5,3.76489555272553,14.75,30.6053078629838,27.1622489042754,304.63258485996
51,3.76518001512789,14.75,30.6123163309664,27.1681416942399,304.628852707894
51.5,3.76544271637859,14.75,30.6193247989491,27.1740344842044,304.625127550018
52,3.76568810688007,14.75,30.6263332669317,27.1799272741689,304.621412187473
52.5,3.76592066242363,14.75,30.6333417349144,27.1858200641334,304.617706991465
53,3.76614116751286,14.75,30.640350202897,27.1917128540979,304.61401418714
53.5,3.76635190328375,14.75,30.6473586708797,27.1976056440624,304.610333738151
54,3.76655385686781,14.75,30.6543671388623,27.2034984340269,304.606666590845
54.5,3.76674802953583,14.75,30.661375606845,27.2093912239914,304.603013100376
55,3.766934255592,14.75,30.6683840748277,27.2152840139559,304.599375879658
55.5,3.76711580056757,14.75,30.6753925428103,27.2211768039203,304.595749543152
56,3.76729169091493,14.75,30.682401010793,27.2270695938848,304.592137280081
56.5,3.76746248724391,14.75,30.6894094787756,27.2329623838493,304.58853900964
57,3.76762762968547,14.75,30.6964179467583,27.2388551738138,304.584958135305
57.5,3.76778872261903,14.75,30.7034264147409,27.2447479637783,304.581391017396
58,3.76794602453311,14.75,30.7104348827236,27.2506407537428,304.577837654127
58.5,3.76809977403084,14.75,30.7174433507062,27.2565335437073,304.574298040029
59,3.76825019081267,14.75,30.7244518186889,27.2624263336718,304.570772166465
59.5,3.76839690713721,14.75,30.7314602866715,27.2683191236363,304.56726276707
60,3.73815361254286,-4.85489507835434,30.7384631655167,27.2742072141981,304.563768772892
60.5,3.72264879289364,-14.75,30.7314607523645,27.2683195151956,304.565695697382
61,3.72250554386809,-14.75,30.7244522843819,27.2624267252311,304.5673088493
61.5,3.72237580172479,-14.75,30.7174438163992,27.2565339352666,304.568930174232
62,3.72225640611149,-14.75,30.7104353484166,27.2506411453021,304.570558488038
62.5,3.72214458712996,-14.75,30.7034268804339,27.2447483553376,304.572192261661
63,3.72203958561247,-14.75,30.6964184124513,27.2388555653731,304.573831160439
63.5,3.72193961430577,-14.75,30.6894099444686,27.2329627754087,304.575473888298
64,3.72184513748975,-14.75,30.682401476486,27.2270699854442,304.57712081616
64.5,3.7217534958617,-14.75,30.6753930085033,27.2211771954797,304.578769875443
65,3.72166593980979,-14.75,30.6683845405206,27.2152844055152,304.580421977589
65.5,3.72158139922137,-14.75,30.661376072538,27.2093916155507,304.582076204798
66,3.72149928768069,-14.75,30.6543676045553,27.2034988255862,304.583732015671
66.5,3.72141939440723,-14.75,30.6473591365727,27.1976060356217,304.585389161968
67,3.72134161572483,-14.75,30.64035066859,27.1917132456572,304.587047454032
67.5,3.72126619785654,-14.75,30.6333422006074,27.1858204556927,304.588706805644
68,3.72119234725282,-14.75,30.6263337326247,27.1799276657282,304.590366706118
68.5,3.7211199546064,-14.75,30.6193252646421,27.1740348757637,304.592027007428
69,3.72104891700703,-14.75,30.6123167966594,27.1681420857992,304.593687565091
69.5,3.72097937334147,-14.75,30.6053083286768,27.1622492958347,304.595348208975
70,3.72091113044537,-14.75,30.5982998606941,27.1563565058702,304.597008699968
70.5,3.72084390881506,-14.75,30.5912913927114,27.1504637159057,304.598668927856
71,3.72077781265047,-14.75,30.5842829247288,27.1445709259412,304.600328672548
71.5,3.72071301493942,-14.75,30.5772744567461,27.1386781359767,304.601987668254
72,3.72064821722838,-14.75,30.5702659887635,27.1327853460122,304.603646663959
72.5,3.72058494198913,-14.75,30.5632575207808,27.1268925560477,304.605304219887
73,3.72052222911848,-14.75,30.5562490527982,27.1209997660832,304.606961243992
73.5,3.72045981645383,-14.75,30.5492405848155,27.1151069761187,304.608617825163
74,3.72039885105179,-14.75,30.5422321168329,27.1092141861542,304.610272270994
74.5,3.72033788564975,-14.75,30.5352236488502,27.1033213961897,304.611926716825
75,3.72027782941517,-14.75,30.5282151808676,27.0974286062253,304.613579261709
75.5,3.72021834635614,-14.75,30.5212067128849,27.0915358162608,304.61523060816
76,3.72015893298335,-14.75,30.5141982449022,27.0856430262963,304.616881760279
76.5,3.72010071999627,-14.75,30.5071897769196,27.0797502363318,304.618529564918
77,3.72004250700919,-14.75,30.5001813089369,27.0738574463673,304.620177369557
77.5,3.71998483829264,-14.75,30.4931728409543,27.0679646564028,304.621823240702
78,3.71992772173095,-14.75,30.4861643729716,27.0620718664383,304.623467150344
78.5,3.71987060516926,-14.75,30.479155904989,27.0561790764738,304.625111059985
79,3.71981438212362,-14.75,30.4721474370063,27.0502862865093,304.626751027557
79.5,3.71975821819749,-14.75,30.4651389690237,27.0443934965448,304.628390734302
80,3.7197023704141,-14.75,30.458130501041,27.0385007065803,304.630028751419
80.5,3.71964703958764,-14.75,30.4511220330584,27.0326079166158,304.631664005655
81,3.71959170876117,-14.75,30.4441135650757,27.0267151266513,304.633299259891
81.5,3.71953697979544,-14.75,30.4371050970931,27.0208223366868,304.634930688095
82,3.71948238203872,-14.75,30.4300966291104,27.0149295467223,304.636561282203
82.5,3.71942795454996,-14.75,30.4230881611277,27.0090367567578,304.638190603712
83,3.71937400530741,-14.75,30.4160796931451,27.0031439667933,304.639816350764
83.5,3.71932005606486,-14.75,30.4090712251624,26.9972511768288,304.641442097816
84,3.71926669457818,-14.75,30.4020627571798,26.9913583868643,304.643062510624
84.5,3.71921358011243,-14.75,30.3950542891971,26.9854655968998,304.644680681567
85,3.71916046564668,-14.75,30.3880458212145,26.9795728069353,304.646298852509
85.5,3.71910735118093,-14.75,30.3810373532318,26.9736800169708,304.647917023452
86,3.71905423671517,-14.75,30.3740288852492,26.9677872270064,304.649535194394
86.5,3.71900166712474,-14.75,30.3670204172665,26.9618944370419,304.651147186458
87,3.71894948064239,-14.75,30.3600119492839,26.9560016470774,304.652754834082
87.5,3.71889729416004,-14.75,30.3530034813012,26.9501088571129,304.654362481705
88,3.71884510767769,-14.75,30.3459950133185,26.9442160671484,304.655970129329
88.5,3.71879292119534,-14.75,30.3389865453359,26.9383232771839,304.657577776952
89,3.71874109008932,-14.75,30.3319780773532,26.9324304872194,304.659180304586
89.5,3.71868965935089,-14.75,30.3249696093706,26.9265376972549,304.660777064031
90,3.71863822861246,-14.75,30.3179611413879,26.9206449072904,304.662373823475
90.5,3.71858679787403,-14.75,30.3109526734053,26.9147521173259,304.66397058292
91,3.7185353671356,-14.75,30.3039442054226,26.9088593273614,304.665567342365
91.5,3.71848415771005,-14.75,30.29693573744,26.9029665373969,304.667160168868
92,3.71843335337558,-14.75,30.2899272694573,26.8970737474324,304.668745796517
92.5,3.71838254904112,-14.75,30.2829188014747,26.8911809574679,304.670331424166
93,3.71833174470666,-14.75,30.275910333492,26.8852881675034,304.671917051815
93.5,3.71828094037219,-14.75,30.2689018655093,26.8793953775389,304.673502679464
94,3.71823026097005,-14.75,30.2618933975267,26.8735025875744,304.67508563839
94.5,3.71817998515852,-14.75,30.254884929544,26.8676097976099,304.676659976075
95,3.71812970934699,-14.75,30.2478764615614,26.8617170076454,304.67823431376
95.5,3.71807943353546,-14.75,30.2408679935787,26.8558242176809,304.679808651446
96,3.71802915772394,-14.75,30.2338595255961,26.8499314277164,304.681382989131
96.5,3.71797893605233,-14.75,30.2268510576134,26.8440386377519,304.682955966225
97,3.71792911347169,-14.75,30.2198425896308,26.8381458477874,304.684518913758
97.5,3.71787929089105,-14.75,30.2128341216481,26.8322530578229,304.686081861291
98,3.71782946831041,-14.75,30.2058256536655,26.8263602678585,304.687644808823
98.5,3.71777964572976,-14.75,30.1988171856828,26.820467477894,304.689207756356
99,3.71772982414559,-14.75,30.1918087177001,26.8145746879295,304.690770674949
99.5,3.71768039597922,-14.75,30.1848002497175,26.808681897965,304.69232216755
100,3.71763096781285,-14.75,30.1777917817348,26.8027891080005,304.693873660151
100.5,3.71758153964648,-14.75,30.1707833137522,26.796896318036,304.695425152753
101,3.71753211148011,-14.75,30.1637748457695,26.7910035280715,304.696976645354
101.5,3.71748268331374,-14.75,30.1567663777869,26.785110738107,304.698528137956
102,3.71743356339028,-14.75,30.1497579098042,26.7792179481425,304.700069460514
102.5,3.71738448328516,-14.75,30.1427494418216,26.773325158178,304.701609469323
103,3.71733540318004,-14.75,30.1357409738389,26.7674323682135,304.703149478131
103.5,3.71728632307491,-14.75,30.1287325058562,26.761539578249,304.704689486939
104,3.71723724296979,-14.75,30.1217240378736,26.7556467882845,304.706229495748
104.5,3.71718840225652,-14.75,30.1147155698909,26.74975399832,304.707760674464
105,3.71713963358671,-14.75,30.1077071019083,26.7438612083555,304.709289195821
105.5,3.7170908649169,-14.75,30.1006986339256,26.737968418391,304.710817717177
106,3.71704209624709,-14.75,30.093690165943,26.7320756284265,304.712346238533
106.5,3.71699332757727,-14.75,30.0866816979603,26.726182838462,304.713874759889
107,3.71694474292467,-14.75,30.0796732299777,26.7202900484975,304.715395807594
107.5,3.71689625659983,-14.75,30.072664761995,26.714397258533,304.716912861825
108,3.716847770275,-14.75,30.0656562940124,26.7085044685685,304.718429916057
108.5,3.71679928395017,-14.75,30.0586478260297,26.702611678604,304.719946970289
109,3.71675079762534,-14.75,30.0516393580471,26.6967188886395,304.721464024521
109.5,3.71670251406665,-14.75,30.0446308900644,26.690826098675,304.722971918997
110,3.71665440687213,-14.75,30.0376224220817,26.6849333087106,304.724471846399
110.5,3.7166062996776,-14.75,30.0306139540991,26.6790405187461,304.725971773802
111,3.71655819248308,-14.75,30.0236054861164,26.6731477287816,304.727471701204
111.5,3.71651008528855,-14.75,30.0165970181338,26.6672549388171,304.728971628607
112,3.71646197809403,-14.75,30.0095885501511,26.6613621488526,304.73047155601
112.5,3.7164138708995,-14.75,30.0025800821685,26.6554693588881,304.731971483412
113,3.71636576370498,-14.75,29.9955716141858,26.6495765689236,304.733471410815
113.5,3.71631765651045,-14.75,29.9885631462032,26.6436837789591,304.734971338217
114,3.71626954931593,-14.75,29.9815546782205,26.6377909889946,304.73647126562
114.5,3.71622157732828,-14.75,29.9745462102379,26.6318981990301,304.737964378211
115,3.71617391937755,-14.75,29.9675377422552,26.6260054090656,304.739441662445
115.5,3.71612626142683,-14.75,29.9605292742725,26.6201126191011,304.74091894668
116,3.7160786034761,-14.75,29.9535208062899,26.6142198291366,304.742396230915
116.5,3.71603094552538,-14.75,29.9465123383072,26.6083270391721,304.743873515149
117,3.71598328757465,-14.75,29.9395038703246,26.6024342492076,304.745350799384
117.5,3.71593562962393,-14.75,29.9324954023419,26.5965414592431,304.746828083619
118,3.7158879716732,-14.75,29.9254869343593,26.5906486692786,304.748305367853
118.5,3.71584031372248,-14.75,29.9184784663766,26.5847558793141,304.749782652088
119,3.71579265577176,-14.75,29.911469998394,26.5788630893496,304.751259936323
119.5,3.71574502458369,-14.75,29.9044615304113,26.5729702993851,304.75273571917
120,3.71569776541011,-14.75,29.8974530624286,26.5670775094206,304.754190631972
120.5,3.71565050623654,-14.75,29.890444594446,26.5611847194561,304.755645544773
121,3.71560324706296,-14.75,29.8834361264633,26.5552919294916,304.757100457575
121.5,3.71555598788939,-14.75,29.8764276584807,26.5493991395271,304.758555370377
122,3.71550872871581,-14.75,29.869419190498,26.5435063495626,304.760010283178
122.5,3.71546146954223,-14.75,29.8624107225154,26.5376135595981,304.76146519598
123,3.71541421036866,-14.75,29.8554022545327,26.5317207696337,304.762920108782
123.5,3.71536695119508,-14.75,29.8483937865501,26.5258279796692,304.764375021583
124,3.71531969202151,-14.75,29.8413853185674,26.5199351897047,304.765829934385
124.5,3.71527243284793,-14.75,29.8343768505847,26.5140423997402,304.767284847187
125,3.71522547524368,-14.75,29.8273683826021,26.5081496097757,304.768721388352
125.5,3.71517857798594,-14.75,29.8203599146194,26.5022568198112,304.770154253201
126,3.71513168072821,-14.75,29.8133514466368,26.4963640298467,304.77158711805
126.5,3.71508478347047,-14.75,29.8063429786541,26.4904712398822,304.773019982898
127,3.71503788621274,-14.75,29.7993345106715,26.4845784499177,304.774452847747
