time,voltage,curr_density,SOC,SOC_est,temp
0,3.93377643378127,-29.5,79,67.85299,300
0.5,3.93339721856028,-29.5,78.9859830640347,67.841204420071,300.003416841826
1,3.9330470761126,-29.5,78.9719661280694,67.829418840142,300.006715726885
1.5,3.93271400235703,-29.5,78.9579491921041,67.817633260213,300.010047445991
2,3.93239473027541,-29.5,78.9439322561387,67.805847680284,300.013409863557
2.5,3.93208547028385,-29.5,78.9299153201734,67.794062100355,300.01679695929
3,3.9317861534282,-29.5,78.9158983842081,67.7822765204261,300.020210642562
3.5,3.93149428561753,-29.5,78.9018814482428,67.7704909404971,300.023645811986
4,3.93120992869178,-29.5,78.8878645122775,67.7587053605681,300.027104035378
4.5,3.9309315316501,-29.5,78.8738475763122,67.7469197806391,300.030581658487
5,3.93065931813619,-29.5,78.8598306403469,67.7351342007101,300.034080387089
5.5,3.93039199221084,-29.5,78.8458137043816,67.7233486207811,300.037596731201
6,3.93012877761706,-29.5,78.8317967684163,67.7115630408521,300.041128354012
6.5,3.92986943201271,-29.5,78.817779832451,67.6997774609231,300.044674737764
7,3.92961490399267,-29.5,78.8037628964857,67.6879918809941,300.04824025675
7.5,3.92936393312415,-29.5,78.7897459605203,67.6762063010651,300.051820487815
8,3.92911595464281,-29.5,78.775729024555,67.6644207211361,300.055413369133
8.5,3.92887082799832,-29.5,78.7617120885897,67.6526351412071,300.059018529325
9,3.92862927999806,-29.5,78.7476951526244,67.6408495612781,300.06263956071
9.5,3.92839048427615,-29.5,78.7336782166591,67.6290639813492,300.066273178948
10,3.92815399147972,-29.5,78.7196612806938,67.6172784014202,300.06991751269
10.5,3.92791971010506,-29.5,78.7056443447285,67.6054928214912,300.073572277738
11,3.9276882087856,-29.5,78.6916274087632,67.5937072415622,300.077240428544
11.5,3.92745995669073,-29.5,78.6776104727979,67.5819216616332,300.080924710509
12,3.92723267038716,-29.5,78.6635935368326,67.5701360817042,300.08461378726
12.5,3.92700594004059,-29.5,78.6495766008672,67.5583505017752,300.088305719587
13,3.9267836710114,-29.5,78.635559664902,67.5465649218462,300.092020566691
13.5,3.92656140198221,-29.5,78.6215427289366,67.5347793419172,300.095735413795
14,3.92634112191336,-29.5,78.6075257929714,67.5229937619882,300.099460872847
14.5,3.92612326545884,-29.5,78.593508857006,67.5112081820592,300.103199262913
15,3.92590540900431,-29.5,78.5794919210407,67.4994226021303,300.106937652979
15.5,3.92569064911744,-29.5,78.5654749850754,67.4876370222013,300.11069311774
16,3.92547670895844,-29.5,78.5514580491101,67.4758514422723,300.114453102539
16.5,3.92526322632605,-29.5,78.5374411131448,67.4640658623433,300.118215681636
17,3.92505278869254,-29.5,78.5234241771795,67.4522802824143,300.121995526691
17.5,3.92484235105903,-29.5,78.5094072412142,67.4404947024853,300.125775371746
18,3.92463339700722,-29.5,78.4953903052489,67.4287091225563,300.129563839468
18.5,3.92442611212495,-29.5,78.4813733692836,67.4169235426273,300.133362008504
19,3.92421882724268,-29.5,78.4673564333183,67.4051379626983,300.13716017754
19.5,3.92401385483802,-29.5,78.4533394973529,67.3933523827693,300.140972094403
20,3.92380942308052,-29.5,78.4393225613876,67.3815668028403,300.144787225449
20.5,3.92360538181004,-29.5,78.4253056254223,67.3697812229113,300.148604725027
21,3.92340354557007,-29.5,78.411288689457,67.3579956429823,300.152435599408
21.5,3.9232017093301,-29.5,78.3972717534917,67.3462100630534,300.15626647379
22,3.92300103668804,-29.5,78.3832548175264,67.3344244831244,300.160104532541
22.5,3.92280157326662,-29.5,78.3692378815611,67.3226389031954,300.16395005735
23,3.92260210984521,-29.5,78.3552209455958,67.3108533232664,300.167795582159
23.5,3.92240445574435,-29.5,78.3412040096305,67.2990677433374,300.171652450364
24,3.92220717137117,-29.5,78.3271870736652,67.2872821634084,300.175511636547
24.5,3.92201038766171,-29.5,78.3131701376999,67.2754965834794,300.179374017215
25,3.92181604377248,-29.5,78.2991532017346,67.2637110035504,300.183251965153
25.5,3.92162169988325,-29.5,78.2851362657692,67.2519254236214,300.187129913091
26,3.92142735599402,-29.5,78.2711193298039,67.2401398436924,300.191007861029
26.5,3.9212330121048,-29.5,78.2571023938386,67.2283542637634,300.194885808967
27,3.92103866821557,-29.5,78.2430854578733,67.2165686838345,300.198763756904
27.5,3.92084726978799,-29.5,78.229068521908,67.2047831039055,300.202660839451
28,3.92065639055619,-29.5,78.2150515859427,67.1929975239765,300.206561294851
28.5,3.9204655113244,-29.5,78.2010346499774,67.1812119440475,300.21046175025
29,3.92027463209261,-29.5,78.1870177140121,67.1694263641185,300.214362205649
29.5,3.92008375286082,-29.5,78.1730007780467,67.1576407841895,300.218262661049
30,3.91989447455446,-29.5,78.1589838420815,67.1458552042605,300.222173691466
30.5,3.91970661579706,-29.5,78.1449669061161,67.1340696243315,300.226094098806
31,3.91951875703965,-29.5,78.1309499701508,67.1222840444025,300.230014506145
31.5,3.91933089828224,-29.5,78.1169330341855,67.1104984644735,300.233934913485
32,3.91914303952483,-29.5,78.1029160982202,67.0987128845446,300.237855320825
32.5,3.91895574111456,-29.5,78.0888991622549,67.0869273046156,300.241779473346
33,3.91877055189874,-29.5,78.0748822262896,67.0751417246866,300.245717723047
33.5,3.91858536268292,-29.5,78.0608652903243,67.0633561447576,300.249655972748
34,3.91840017346711,-29.5,78.046848354359,67.0515705648286,300.253594222449
34.5,3.91821498425129,-29.5,78.0328314183937,67.0397849848996,300.25753247215
35,3.91802979503547,-29.5,78.0188144824284,67.0279994049706,300.261470721851
35.5,3.91784673211725,-29.5,78.0047975464631,67.0162138250416,300.265423258295
36,3.91766393258183,-29.5,77.9907806104978,67.0044282451126,300.269377564428
36.5,3.91748113304641,-29.5,77.9767636745324,66.9926426651836,300.27333187056
37,3.91729833351099,-29.5,77.9627467385671,66.9808570852546,300.277286176693
37.5,3.91711553397557,-29.5,77.9487298026018,66.9690715053256,300.281240482825
38,3.91693396753485,-29.5,77.9347128666365,66.9572859253966,300.285203058423
38.5,3.91675333260466,-29.5,77.9206959306712,66.9455003454677,300.28917188098
39,3.91657269767447,-29.5,77.9066789947059,66.9337147655387,300.293140703538
39.5,3.91639206274427,-29.5,77.8926620587406,66.9219291856097,300.297109526095
40,3.91621142781408,-29.5,77.8786451227753,66.9101436056807,300.301078348653
40.5,3.91603128726312,-29.5,77.86462818681,66.8983580257517,300.305050464242
41,3.91585263347925,-29.5,77.8506112508447,66.8865724458227,300.309032483101
41.5,3.91567397969539,-29.5,77.8365943148794,66.8747868658937,300.313014501959
42,3.91549532591153,-29.5,77.822577378914,66.8630012859647,300.316996520818
42.5,3.91531667212767,-29.5,77.8085604429487,66.8512157060357,300.320978539677
43,3.9151380183438,-29.5,77.7945435069834,66.8394301261067,300.324960558536
43.5,3.91496106654822,-29.5,77.7805265710181,66.8276445461778,300.328953775624
44,3.91478424399863,-29.5,77.7665096350528,66.8158589662488,300.332947843085
44.5,3.91460742144903,-29.5,77.7524926990875,66.8040733863198,300.336941910547
45,3.91443059889944,-29.5,77.7384757631222,66.7922878063908,300.340935978008
45.5,3.91425377634985,-29.5,77.7244588271569,66.7805022264618,300.34493004547
46,3.91407799459906,-29.5,77.7104418911916,66.7687166465328,300.348930838394
46.5,3.91390288023512,-29.5,77.6964249552263,66.7569310666038,300.352935943856
47,3.91372776587118,-29.5,77.6824080192609,66.7451454866748,300.356941049318
47.5,3.91355265150724,-29.5,77.6683910832956,66.7333599067458,300.36094615478
48,3.9133775371433,-29.5,77.6543741473303,66.7215743268168,300.364951260243
48.5,3.91320271734184,-29.5,77.640357211365,66.7097887468878,300.368958235115
49,3.91302862159036,-29.5,77.6263402753997,66.6980031669588,300.372969805094
49.5,3.9128548542399,-29.5,77.6123233394344,66.6862175870298,300.376983420763
50,3.91268138615754,-29.4999999993712,77.5983064034691,66.6744320071009,300.380998897393
50.5,3.98282476559063,14.75,77.6053078629838,66.6803189042754,300.379136949835
51,3.98315776848088,14.75,77.6123163309664,66.6862116942399,300.377532240554
51.5,3.9834674238633,14.75,77.6193247989491,66.6921044842044,300.375930302942
52,3.98375814348712,14.75,77.6263332669317,66.6979972741689,300.374333719652
52.5,3.98403523561119,14.75,77.6333417349144,66.7038900641334,300.372743098449
53,3.98429866375559,14.75,77.640350202897,66.7097828540979,300.371160478172
53.5,3.98455194368276,14.75,77.6473586708797,66.7156756440623,300.369585406925
54,3.98479506059626,14.75,77.6543671388624,66.7215684340269,300.368019440315
54.5,3.98502998967364,14.75,77.661375606845,66.7274612239913,300.366462158766
55,3.98525687256922,14.75,77.6683840748277,66.7333540139559,300.364914553296
55.5,3.9854772822548,14.75,77.6753925428103,66.7392468039204,300.363375943228
56,3.98569165900706,14.75,77.682401010793,66.7451395938849,300.361846543918
56.5,3.98590058629853,14.75,77.6894094787756,66.7510323838493,300.360326287691
57,3.98610448292675,14.75,77.6964179467583,66.7569251738138,300.358815209203
57.5,3.98630372010514,14.75,77.7034264147409,66.7628179637783,300.357313315221
58,3.98649783593265,14.75,77.7104348827236,66.7687107537428,300.355822455584
58.5,3.98668795844476,14.75,77.7174433507062,66.7746035437073,300.35434098268
59,3.98687444437065,14.75,77.7244518186889,66.7804963336718,300.352868613634
59.5,3.98705751640536,14.75,77.7314602866716,66.7863891236363,300.351405307116
60,3.94564240825727,-11.7753378537462,77.7384611925952,66.792275555346,300.349951431137
60.5,3.94078268860232,-14.75,77.7314563487027,66.7863858125527,300.350862095942
61,3.94061250309758,-14.75,77.72444788072,66.7804930225882,300.351634022558
61.5,3.94045625473822,-14.75,77.7174394127374,66.7746002326237,300.352416971481
62,3.94031056847048,-14.75,77.7104309447547,66.7687074426592,300.35320977033
62.5,3.94017278649148,-14.75,77.703422476772,66.7628146526947,300.354010859597
63,3.94004159373023,-14.75,77.6964140087894,66.7569218627302,300.354819525402
63.5,3.93991639020757,-14.75,77.6894055408067,66.7510290727657,300.355635675028
64,3.939795571704,-14.75,77.6823970728241,66.7451362828012,300.356457708458
64.5,3.93967932983798,-14.75,77.6753886048414,66.7392434928367,300.357286270938
65,3.93956704646426,-14.75,77.6683801368588,66.7333507028722,300.358120863374
65.5,3.93945692633364,-14.75,77.6613716688761,66.7274579129077,300.358958882835
66,3.93935016414179,-14.75,77.6543632008935,66.7215651229432,300.3598024184
66.5,3.93924601699678,-14.75,77.6473547329108,66.7156723329787,300.360650497113
67,3.93914374214209,-14.75,77.6403462649282,66.7097795430142,300.361501914964
67.5,3.9390433786944,-14.75,77.6333377969455,66.7038867530498,300.362356810529
68,3.93894547026016,-14.75,77.6263293289629,66.6979939630853,300.363216342529
68.5,3.93884893067667,-14.75,77.6193208609802,66.6921011731208,300.364078542986
69,3.93875370843202,-14.75,77.6123123929975,66.6862083831563,300.364943338997
69.5,3.93866022828861,-14.75,77.6053039250149,66.6803155931918,300.365811662323
70,3.93856805910133,-14.75,77.5982954570322,66.6744228032273,300.366682728868
70.5,3.93847689568753,-14.75,77.5912869890496,66.6685300132628,300.367555929194
71,3.93838682019804,-14.75,77.584278521067,66.6626372232983,300.368431466938
71.5,3.93829867811401,-14.75,77.5772700530843,66.6567444333338,300.369311261263
72,3.93821070964357,-14.75,77.5702615851016,66.6508516433693,300.370191437816
72.5,3.93812299344292,-14.75,77.5632531171189,66.6449588534048,300.371072178406
73,3.9380374239226,-14.75,77.5562446491363,66.6390660634403,300.371957718659
73.5,3.93795185440228,-14.75,77.5492361811537,66.6331732734758,300.372843258912
74,3.93786687159121,-14.75,77.542227713171,66.6272804835113,300.373730134397
74.5,3.9377833064442,-14.75,77.5352192451884,66.6213876935468,300.374620236202
75,3.93769974129718,-14.75,77.5282107772057,66.6154949035823,300.375510338007
75.5,3.93761699008558,-14.75,77.521202309223,66.6096021136178,300.376402332539
76,3.93753511968155,-14.75,77.5141938412404,66.6037093236533,300.377296375304
76.5,3.93745324927751,-14.75,77.5071853732577,66.5978165336888,300.37819041807
77,3.93737234875894,-14.75,77.5001769052751,66.5919237437243,300.379086736921
77.5,3.93729193065569,-14.75,77.4931684372924,66.5860309537598,300.379984187885
78,3.93721151255243,-14.75,77.4861599693098,66.5801381637953,300.380881638849
78.5,3.93713217244662,-14.75,77.4791515013271,66.5742453738308,300.381781597228
79,3.93705301459456,-14.75,77.4721430333445,66.5683525838664,300.382681979528
79.5,3.93697390409882,-14.75,77.4651345653618,66.5624597939019,300.383582470352
80,3.93689584911732,-14.75,77.4581260973792,66.5565670039374,300.384485380042
80.5,3.93681779413582,-14.75,77.4511176293965,66.5506742139729,300.385388289733
81,3.93673996301373,-14.75,77.4441091614138,66.5447814240083,300.386291703439
81.5,3.9366628792425,-14.75,77.4371006934312,66.5388886340439,300.387196799791
82,3.93658579547127,-14.75,77.4300922254485,66.5329958440794,300.388101896144
82.5,3.93650907187969,-14.75,77.4230837574659,66.5271030541149,300.389007782167
83,3.9364328496762,-14.75,77.4160752894832,66.5212102641504,300.389914767453
83.5,3.93635662747272,-14.75,77.4090668215006,66.5153174741859,300.390821752739
84,3.93628087199346,-14.75,77.4020583535179,66.5094246842214,300.391729722633
84.5,3.936205420461,-14.75,77.3950498855353,66.5035318942569,300.392638333737
85,3.93612996892855,-14.75,77.3880414175526,66.4976391042924,300.393546944842
85.5,3.93605506799334,-14.75,77.3810329495699,66.4917463143279,300.394456660596
86,3.93598031063941,-14.75,77.3740244815873,66.4858535243634,300.395366664413
86.5,3.93590555328549,-14.75,77.3670160136046,66.4799607343989,300.39627666823
87,3.93583141243011,-14.75,77.360007545622,66.4740679444344,300.397187838778
87.5,3.93575728369457,-14.75,77.3529990776393,66.4681751544699,300.398099032264
88,3.93568329555716,-14.75,77.3459906096567,66.4622823645054,300.399010465377
88.5,3.93561000234251,-14.75,77.338982141674,66.4563895745409,300.399923082874
89,3.93553670912785,-14.75,77.3319736736914,66.4504967845764,300.40083570037
89.5,3.9354634159132,-14.75,77.3249652057087,66.4446039946119,300.401748317866
90,3.93539012269854,-14.75,77.317956737726,66.4387112046474,300.402660935363
90.5,3.93531682948389,-14.75,77.3109482697434,66.4328184146829,300.403573552859
91,3.93524406223605,-14.75,77.3039398017607,66.4269256247184,300.40448692949
91.5,3.93517173696048,-14.75,77.2969313337781,66.4210328347539,300.405400944025
92,3.93509941168492,-14.75,77.2899228657954,66.4151400447895,300.406314958559
92.5,3.93502708640936,-14.75,77.2829143978128,66.409247254825,300.407228973094
93,3.9349547611338,-14.75,77.2759059298301,66.4033544648605,300.408142987629
93.5,3.93488243585823,-14.75,77.2688974618475,66.397461674896,300.409057002163
94,3.93481087518911,-14.75,77.2618889938648,66.3915688849315,300.409971852533
94.5,3.93473938236419,-14.75,77.2548805258822,66.385676094967,300.410886777067
95,3.93466788953927,-14.75,77.2478720578995,66.3797833050025,300.411801701601
95.5,3.93459639671435,-14.75,77.2408635899169,66.373890515038,300.412716626135
96,3.93452490388942,-14.75,77.2338551219342,66.3679977250735,300.413631550669
96.5,3.93445362555952,-14.75,77.2268466539515,66.362104935109,300.414546626246
97,3.9343828632713,-14.75,77.2198381859689,66.3562121451445,300.415462065209
97.5,3.93431210098307,-14.75,77.2128297179862,66.35031935518,300.416377504172
98,3.93424133869485,-14.75,77.2058212500036,66.3444265652155,300.417292943135
98.5,3.93417057640663,-14.75,77.1988127820209,66.338533775251,300.418208382098
99,3.93409981411841,-14.75,77.1918043140382,66.3326409852865,300.419123821061
99.5,3.93402948795295,-14.75,77.1847958460556,66.326748195322,300.420039385753
100,3.93395937783508,-14.75,77.1777873780729,66.3208554053575,300.420955012729
100.5,3.93388926771721,-14.75,77.1707789100903,66.314962615393,300.421870639705
101,3.93381915759935,-14.75,77.1637704421076,66.3090698254285,300.422786266681
101.5,3.93374904748148,-14.75,77.156761974125,66.303177035464,300.423701893657
102,3.93367896327413,-14.75,77.1497535061423,66.2972842454995,300.424617516645
102.5,3.93360944421432,-14.75,77.1427450381597,66.291391455535,300.425533052643
103,3.9335399251545,-14.75,77.135736570177,66.2854986655706,300.426448588642
103.5,3.93347040609469,-14.75,77.1287281021944,66.2796058756061,300.42736412464
104,3.93340088703487,-14.75,77.1217196342118,66.2737130856416,300.428279660638
104.5,3.93333136797506,-14.75,77.1147111662291,66.2678202956771,300.429195196637
105,3.93326207648629,-14.75,77.1077026982465,66.2619275057126,300.430110588497
105.5,3.93319310062052,-14.75,77.1006942302638,66.2560347157481,300.43102578045
106,3.93312412475475,-14.75,77.0936857622811,66.2501419257836,300.431940972402
106.5,3.93305514888899,-14.75,77.0866772942985,66.2442491358191,300.432856164355
107,3.93298617302322,-14.75,77.0796688263158,66.2383563458546,300.433771356307
107.5,3.93291719715745,-14.75,77.0726603583331,66.2324635558901,300.43468654826
108,3.93284862263972,-14.75,77.0656518903505,66.2265707659256,300.435601292946
108.5,3.93278015221053,-14.75,77.0586434223678,66.2206779759611,300.436515921634
109,3.93271168178134,-14.75,77.0516349543852,66.2147851859966,300.437430550323
109.5,3.93264321135216,-14.75,77.0446264864025,66.2088923960321,300.438345179012
110,3.93257474092297,-14.75,77.0376180184199,66.2029996060676,300.439259807701
110.5,3.93250635088076,-14.75,77.0306095504372,66.1971068161031,300.440174311524
111,3.93243835562384,-14.75,77.0236010824546,66.1912140261386,300.441088202126
111.5,3.93237036036692,-14.75,77.0165926144719,66.1853212361741,300.442002092728
112,3.93230236511,-14.75,77.0095841464893,66.1794284462096,300.442915983331
112.5,3.93223436985308,-14.75,77.0025756785066,66.1735356562451,300.443829873933
113,3.93216637459615,-14.75,76.9955672105239,66.1676428662806,300.444743764535
113.5,3.93209862459172,-14.75,76.9885587425413,66.1617500763161,300.445657169853
114,3.93203107992909,-14.75,76.9815502745586,66.1558572863516,300.446570168857
114.5,3.93196353526647,-14.75,76.974541806576,66.1499644963872,300.447483167862
115,3.93189599060384,-14.75,76.9675333385933,66.1440717064227,300.448396166867
115.5,3.93182844594122,-14.75,76.9605248706107,66.1381789164582,300.449309165872
116,3.93176090127859,-14.75,76.9535164026281,66.1322861264937,300.450222164877
116.5,3.93169394297857,-14.75,76.9465079346454,66.1263933365292,300.451133683123
117,3.93162703608323,-14.75,76.9394994666627,66.1205005465647,300.452045071555
117.5,3.93156012918789,-14.75,76.9324909986801,66.1146077566002,300.452956459988
118,3.93149322229255,-14.75,76.9254825306974,66.1087149666357,300.45386784842
118.5,3.93142631539721,-14.75,76.9184740627148,66.1028221766712,300.454779236852
119,3.93135940850187,-14.75,76.9114655947321,66.0969293867067,300.455690625284
119.5,3.93129250160653,-14.75,76.9044571267495,66.0910365967422,300.456602013717
120,3.93122559471119,-14.75,76.8974486587668,66.0851438067777,300.457513402149
120.5,3.93115868781585,-14.75,76.8904401907842,66.0792510168132,300.458424790581
121,3.93109178092051,-14.75,76.8834317228015,66.0733582268487,300.459336179014
121.5,3.93102487402517,-14.75,76.8764232548189,66.0674654368842,300.460247567446
122,3.93095850309354,-14.75,76.8694147868362,66.0615726469198,300.461157219035
122.5,3.93089239659369,-14.75,76.8624063188535,66.0556798569553,300.462066013708
123,3.93082629009385,-14.75,76.8553978508709,66.0497870669908,300.462974808381
123.5,3.93076018359401,-14.75,76.8483893828882,66.0438942770263,300.463883603053
124,3.93069407709417,-14.75,76.8413809149056,66.0380014870618,300.464792397726
124.5,3.93062797059433,-14.75,76.8343724469229,66.0321086970973,300.465701192399
125,3.93056186409449,-14.75,76.8273639789403,66.0262159071328,300.466609987071
125.5,3.93049575759465,-14.75,76.8203555109576,66.0203231171683,300.467518781744
126,3.93042965109481,-14.75,76.813347042975,66.0144303272038,300.468427576417
126.5,3.93036354459497,-14.75,76.8063385749923,66.0085375372393,300.469336371089
127,3.93029743809513,-14.75,76.7993301070096,66.0026447472748,300.470245165762
