time,voltage,curr_density,SOC,SOC_est,temp
0,3.96064032492541,-29.5,85,72.89785,270
0.5,3.96014990064445,-29.5,84.9859830640347,72.886064420071,270.002956953834
1,3.95968173351564,-29.5,84.9719661280694,72.874278840142,270.00588828602
1.5,3.95922781417252,-29.5,84.9579491921041,72.862493260213,270.008890118802
2,3.9587842295178,-29.5,84.9439322561388,72.850707680284,270.011952471194
2.5,3.958349233442,-29.5,84.9299153201734,72.838922100355,270.015071265156
3,3.95792194153771,-29.5,84.9158983842082,72.8271365204261,270.018245154328
3.5,3.95750112245384,-29.5,84.9018814482428,72.8153509404971,270.021468215703
4,3.95708608412051,-29.5,84.8878645122775,72.803565360568,270.024737247867
4.5,3.95667748760905,-29.5,84.8738475763122,72.7917797806391,270.028059787205
5,3.95627388945628,-29.5,84.8598306403469,72.7799942007101,270.031425377091
5.5,3.95587642450734,-29.5,84.8458137043816,72.7682086207811,270.034845525643
6,3.95548219858507,-29.5,84.8317967684163,72.7564230408521,270.038295291326
6.5,3.95509287057435,-29.5,84.817779832451,72.7446374609231,270.041790382484
7,3.95470872319673,-29.5,84.8037628964857,72.7328518809941,270.045334979706
7.5,3.95432775670492,-29.5,84.7897459605203,72.7210663010651,270.048910565861
8,3.95395087317102,-29.5,84.775729024555,72.7092807211361,270.052526425812
8.5,3.95357873567385,-29.5,84.7617120885898,72.6974951412072,270.056190114466
9,3.95320940926645,-29.5,84.7476951526245,72.6857095612782,270.059882613185
9.5,3.95284355129224,-29.5,84.7336782166591,72.6739239813492,270.06361095328
10,3.9524820745716,-29.5,84.7196612806938,72.6621384014202,270.067385588483
10.5,3.95212310212972,-29.5,84.7056443447285,72.6503528214912,270.071187082063
11,3.95176708729553,-29.5,84.6916274087632,72.6385672415622,270.075020467934
11.5,3.95141515764111,-29.5,84.6776104727979,72.6267816616332,270.078898729418
12,3.95106633271884,-29.5,84.6635935368326,72.6149960817042,270.082811773794
12.5,3.95072125276649,-29.5,84.6495766008672,72.6032105017752,270.086766917358
13,3.95037617281414,-29.5,84.635559664902,72.5914249218462,270.090722060922
13.5,3.95003443082817,-29.5,84.6215427289366,72.5796393419172,270.094715627541
14,3.94969685849517,-29.5,84.6075257929713,72.5678537619882,270.09875719069
14.5,3.94935928616217,-29.5,84.593508857006,72.5560681820592,270.102798753839
15,3.94902676872977,-29.5,84.5794919210407,72.5442826021303,270.106899988138
15.5,3.94869573930086,-29.5,84.5654749850754,72.5324970222013,270.111018787744
16,3.94836531923968,-29.5,84.5514580491101,72.5207114422723,270.115144940413
16.5,3.94804035048545,-29.5,84.5374411131448,72.5089258623433,270.119336872408
17,3.94771538173122,-29.5,84.5234241771795,72.4971402824143,270.123528804404
17.5,3.94739282728497,-29.5,84.5094072412141,72.4853547024853,270.127750451186
18,3.94707349270314,-29.5,84.4953903052488,72.4735691225563,270.132011727372
18.5,3.94675415812131,-29.5,84.4813733692835,72.4617835426273,270.136273003557
19,3.9464387976271,-29.5,84.4673564333182,72.4499979626983,270.140584060387
19.5,3.94612471644934,-29.5,84.4533394973529,72.4382123827693,270.144911142328
20,3.94581105003594,-29.5,84.4393225613876,72.4264268028403,270.149243502619
20.5,3.94550188047461,-29.5,84.4253056254223,72.4146412229113,270.153633090489
21,3.94519271091328,-29.5,84.411288689457,72.4028556429823,270.158022678358
21.5,3.94488544066219,-29.5,84.3972717534917,72.3910700630534,270.162436788716
22,3.94458087646497,-29.5,84.3832548175264,72.3792844831244,270.166885837638
22.5,3.94427631226775,-29.5,84.3692378815611,72.3674989031954,270.171334886561
23,3.94397495219728,-29.5,84.3552209455958,72.3557133232664,270.175825837523
23.5,3.94367471568092,-29.5,84.3412040096305,72.3439277433374,270.180331481789
24,3.94337488900481,-29.5,84.3271870736652,72.3321421634084,270.184842568538
24.5,3.9430806489822,-29.5,84.3131701376999,72.3203565834794,270.189427843389
25,3.94278640895959,-29.5,84.2991532017346,72.3085710035504,270.19401311824
25.5,3.94249216893698,-29.5,84.2851362657693,72.2967854236215,270.198598393091
26,3.94219792891436,-29.5,84.271119329804,72.2849998436925,270.203183667943
26.5,3.94190368889175,-29.5,84.2571023938387,72.2732142637635,270.207768942794
27,3.9416144273596,-29.5,84.2430854578733,72.2614286838345,270.212421413904
27.5,3.94132706104015,-29.5,84.229068521908,72.2496431039055,270.217099465299
28,3.9410396947207,-29.5,84.2150515859427,72.2378575239765,270.221777516694
28.5,3.94075232840126,-29.5,84.2010346499774,72.2260719440475,270.22645556809
29,3.94046496208181,-29.5,84.187017714012,72.2142863641185,270.231133619485
29.5,3.94018339924286,-29.5,84.1730007780467,72.2025007841895,270.235891300787
30,3.9399018552784,-29.5,84.1589838420815,72.1907152042605,270.240649241067
30.5,3.93962031131395,-29.5,84.1449669061161,72.1789296243315,270.245407181347
31,3.93933876734949,-29.5,84.1309499701508,72.1671440444025,270.250165121627
31.5,3.93905865342942,-29.5,84.1169330341855,72.1553584644735,270.25494293783
32,3.93878242095809,-29.5,84.1029160982202,72.1435728845445,270.259774701575
32.5,3.93850618848675,-29.5,84.0888991622549,72.1317873046156,270.26460646532
33,3.93822995601541,-29.5,84.0748822262896,72.1200017246866,270.269438229065
33.5,3.93795372354407,-29.5,84.0608652903243,72.1082161447576,270.27426999281
34,3.93768012646648,-29.5,84.046848354359,72.0964305648286,270.279138800858
34.5,3.93740875891738,-29.5,84.0328314183937,72.0846449848996,270.284038948181
35,3.93713739136828,-29.5,84.0188144824284,72.0728594049706,270.288939095505
35.5,3.93686602381917,-29.5,84.004797546463,72.0610738250416,270.293839242828
36,3.93659465627007,-29.5,83.9907806104977,72.0492882451126,270.298739390152
36.5,3.9363269209172,-29.5,83.9767636745324,72.0375026651836,270.303691182824
37,3.93606001447874,-29.5,83.9627467385671,72.0257170852546,270.308654761637
37.5,3.93579310804028,-29.5,83.9487298026018,72.0139315053256,270.313618340449
38,3.93552620160182,-29.5,83.9347128666365,72.0021459253966,270.318581919262
38.5,3.9352596485485,-29.5,83.9206959306712,71.9903603454677,270.323550571092
39,3.93499681953974,-29.5,83.9066789947059,71.9785747655387,270.328572683412
39.5,3.93473399053097,-29.5,83.8926620587406,71.9667891856097,270.333594795733
40,3.93447116152221,-29.5,83.8786451227753,71.9550036056807,270.338616908053
40.5,3.93420833251344,-29.5,83.86462818681,71.9432180257517,270.343639020373
41,3.93394685686451,-29.5,83.8506112508446,71.9314324458227,270.34868084058
41.5,3.9336877961258,-29.5,83.8365943148793,71.9196468658937,270.353757827175
42,3.93342873538709,-29.5,83.822577378914,71.9078612859647,270.358834813769
42.5,3.93316967464838,-29.5,83.8085604429487,71.8960757060357,270.363911800364
43,3.93291061390968,-29.5,83.7945435069834,71.8842901261067,270.368988786959
43.5,3.9326537366185,-29.5,83.7805265710181,71.8725045461778,270.374097203638
44,3.93239813275971,-29.5,83.7665096350528,71.8607189662488,270.379223951001
44.5,3.93214252890093,-29.5,83.7524926990875,71.8489333863198,270.384350698364
45,3.93188692504214,-29.5,83.7384757631222,71.8371478063908,270.389477445726
45.5,3.93163132118335,-29.5,83.7244588271569,71.8253622264618,270.394604193089
46,3.9313786396572,-29.5,83.7104418911916,71.8135766465328,270.399774611174
46.5,3.93112626810486,-29.5,83.6964249552263,71.8017910666038,270.404949661441
47,3.93087389655252,-29.5,83.6824080192609,71.7900054866748,270.410124711709
47.5,3.93062152500018,-29.5,83.6683910832956,71.7782199067458,270.415299761977
48,3.93036948912151,-29.5,83.6543741473303,71.7664343268168,270.420479873136
48.5,3.93011912340214,-29.5,83.640357211365,71.7546487468878,270.425685104404
49,3.92986958163747,-29.5,83.6263402753997,71.7428631669588,270.430902282191
49.5,3.9296200398728,-29.5,83.6123233394344,71.7310775870298,270.436119459978
50,3.92937141570399,-29.5,83.5983064034691,71.7192920071008,270.441350344337
50.5,4.02531006308155,14.75,83.6053078629838,71.7251789042754,270.440255738208
51,4.02577627927834,14.75,83.6123163309665,71.7310716942399,270.439316164026
51.5,4.02621800771812,14.75,83.6193247989491,71.7369644842044,270.438341681478
52,4.02664225981937,14.75,83.6263332669317,71.7428572741689,270.437342948913
52.5,4.02705220637932,14.75,83.6333417349144,71.7487500641334,270.436326152524
53,4.02744985624646,14.75,83.6403502028971,71.7546428540979,270.435296063431
53.5,4.02783614733988,14.75,83.6473586708797,71.7605356440623,270.434256163308
54,4.02821308756389,14.75,83.6543671388623,71.7664284340268,270.43321031498
54.5,4.02858088206673,14.75,83.661375606845,71.7723212239914,270.432160559025
55,4.02894019960027,14.75,83.6683840748277,71.7782140139558,270.431109092958
55.5,4.02929143373864,14.75,83.6753925428103,71.7841068039204,270.43005782834
56,4.02963508349156,14.75,83.682401010793,71.7899995938848,270.429008441678
56.5,4.02997177601866,14.75,83.6894094787756,71.7958923838493,270.427962243291
57,4.03030190065921,14.75,83.6964179467583,71.8017851738138,270.426920378802
57.5,4.030625808633,14.75,83.7034264147409,71.8076779637783,270.425883856117
58,4.0309438175646,14.75,83.7104348827236,71.8135707537428,270.424853545321
58.5,4.03125541777124,14.75,83.7174433507062,71.8194635437073,270.423831411172
59,4.03156186964749,14.75,83.7244518186889,71.8253563336718,270.422816573452
59.5,4.03186575526237,14.75,83.7314602866715,71.8312491236363,270.42180587608
60,3.98624327919911,-6.76970272584039,83.7384626196357,71.8371367552159,270.420807523205
60.5,3.96900683837098,-14.75,83.7314581852153,71.8312473567109,270.421499527325
61,3.96881887046588,-14.75,83.7244497172327,71.8253545667464,270.422118889249
61.5,3.96864238726105,-14.75,83.7174412492501,71.8194617767819,270.422761949839
62,3.96847373460836,-14.75,83.7104327812674,71.8135689868174,270.423423806701
62.5,3.96831093557703,-14.75,83.7034243132847,71.807676196853,270.424101560698
63,3.9681529864996,-14.75,83.6964158453021,71.8017834068884,270.424793811272
63.5,3.96799913134087,-14.75,83.6894073773194,71.7958906169239,270.425499286337
64,3.9678485445632,-14.75,83.6823989093368,71.7899978269595,270.426215997065
64.5,3.96770143856208,-14.75,83.6753904413542,71.784105036995,270.426945413041
65,3.96755698210623,-14.75,83.6683819733715,71.7782122470305,270.42768501448
65.5,3.96741561329233,-14.75,83.6613735053888,71.772319457066,270.428437069606
66,3.96727598518518,-14.75,83.6543650374062,71.7664266671015,270.429196481173
66.5,3.9671382526808,-14.75,83.6473565694235,71.760533877137,270.42996400049
67,3.9670033024793,-14.75,83.6403481014408,71.7546410871725,270.430744066712
67.5,3.96686981600577,-14.75,83.6333396334582,71.748748297208,270.431531045859
68,3.96673775573049,-14.75,83.6263311654756,71.7428555072435,270.432324833131
68.5,3.96660769984224,-14.75,83.6193226974929,71.736962717279,270.433128520239
69,3.96647909580679,-14.75,83.6123142295102,71.7310699273145,270.433939676794
69.5,3.96635163009037,-14.75,83.6053057615276,71.72517713735,270.434756800658
70,3.96622553676528,-14.75,83.5982972935449,71.7192843473855,270.435581281591
70.5,3.96610089564432,-14.75,83.5912888255623,71.713391557421,270.436413852685
71,3.96597717718774,-14.75,83.5842803575796,71.7074987674565,270.437251702527
71.5,3.96585437147438,-14.75,83.577271889597,71.701605977492,270.43809482975
72,3.96573364902474,-14.75,83.5702634216143,71.6957131875275,270.438950569112
72.5,3.96561294384115,-14.75,83.5632549536317,71.689820397563,270.439806413003
73,3.96549257621544,-14.75,83.556246485649,71.6839276075985,270.440664423658
73.5,3.96537431527424,-14.75,83.5492380176664,71.678034817634,270.441535956999
74,3.96525605433304,-14.75,83.5422295496837,71.6721420276695,270.44240749034
74.5,3.9651383869937,-14.75,83.535221081701,71.666249237705,270.443283103678
75,3.96502221306639,-14.75,83.5282126137184,71.6603564477406,270.444168981667
75.5,3.96490603913907,-14.75,83.5212041457357,71.6544636577761,270.445054859656
76,3.96479063883199,-14.75,83.5141956777531,71.6485708678116,270.445946412373
76.5,3.96467626089092,-14.75,83.5071872097704,71.6426780778471,270.446845464438
77,3.96456188294984,-14.75,83.5001787417877,71.6367852878826,270.447744516504
77.5,3.96444840514986,-14.75,83.4931702738051,71.6308924979181,270.448650589107
78,3.96433558704889,-14.75,83.4861618058225,71.6249997079536,270.449561806948
78.5,3.96422276894792,-14.75,83.4791533378398,71.6191069179891,270.450473024789
79,3.96411093840768,-14.75,83.4721448698572,71.6132141280246,270.451392417248
79.5,3.96399948548014,-14.75,83.4651364018745,71.6073213380601,270.452314935429
80,3.96388803255261,-14.75,83.4581279338919,71.6014285480956,270.45323745361
80.5,3.9637776249686,-14.75,83.4511194659092,71.5955357581311,270.454169159456
81,3.96366737397366,-14.75,83.4441109979265,71.5896429681666,270.455102241585
81.5,3.96355714004859,-14.75,83.4371025299439,71.5837501782021,270.456035482878
82,3.96344795312369,-14.75,83.4300940619612,71.5778573882376,270.456978486728
82.5,3.96333876619879,-14.75,83.4230855939786,71.5719645982731,270.457921490579
83,3.96322973315524,-14.75,83.4160771259959,71.5660718083086,270.458866013286
83.5,3.96312149397877,-14.75,83.4090686580132,71.5601790183441,270.459818371707
84,3.9630132548023,-14.75,83.4020601900306,71.5542862283796,270.460770730128
84.5,3.96290527772231,-14.75,83.395051722048,71.5483934384151,270.461725822129
85,3.96279788761095,-14.75,83.3880432540653,71.5425006484506,270.462687036019
85.5,3.96269049749959,-14.75,83.3810347860827,71.5366078584862,270.463648249909
86,3.96258345518705,-14.75,83.3740263181,71.5307150685217,270.464613297133
86.5,3.96247682944947,-14.75,83.3670178501174,71.5248222785572,270.465582935723
87,3.9623702037119,-14.75,83.3600093821347,71.5189294885927,270.466552574312
87.5,3.96226418291079,-14.75,83.353000914152,71.5130366986282,270.467529345482
88,3.96215856316306,-14.75,83.3459924461694,71.5071439086637,270.468510845323
88.5,3.96205294341533,-14.75,83.3389839781867,71.5012511186992,270.469492345165
89,3.9619473236676,-14.75,83.3319755102041,71.4953583287347,270.470473845006
89.5,3.96184170391987,-14.75,83.3249670422214,71.4894655387702,270.471455344848
90,3.96173608417214,-14.75,83.3179585742388,71.4835727488057,270.472436844689
90.5,3.96163149168335,-14.75,83.3109501062561,71.4776799588412,270.473431538236
91,3.96152702101948,-14.75,83.3039416382734,71.4717871688767,270.474427796454
91.5,3.96142255035561,-14.75,83.2969331702908,71.4658943789122,270.475424054673
92,3.96131807969174,-14.75,83.2899247023081,71.4600015889477,270.476420312891
92.5,3.96121360902787,-14.75,83.2829162343255,71.4541087989832,270.477416571109
93,3.96110931869921,-14.75,83.2759077663428,71.4482160090187,270.478415381419
93.5,3.9610058143217,-14.75,83.2688992983602,71.4423232190542,270.47942531446
94,3.96090230994419,-14.75,83.2618908303775,71.4364304290897,270.480435247501
94.5,3.96079880556668,-14.75,83.2548823623949,71.4305376391252,270.481445180542
95,3.96069530118917,-14.75,83.2478738944122,71.4246448491607,270.482455113583
95.5,3.96059179681166,-14.75,83.2408654264295,71.4187520591962,270.483465046624
96,3.96048868777352,-14.75,83.2338569584469,71.4128592692317,270.484481116839
96.5,3.96038600826845,-14.75,83.2268484904642,71.4069664792672,270.485503855045
97,3.96028332876339,-14.75,83.2198400224816,71.4010736893027,270.486526593251
97.5,3.96018064925832,-14.75,83.2128315544989,71.3951808993382,270.487549331456
98,3.96007796975325,-14.75,83.2058230865163,71.3892881093738,270.488572069662
98.5,3.95997529024819,-14.75,83.1988146185336,71.3833953194093,270.489594807868
99,3.95987316149817,-14.75,83.191806150551,71.3775025294448,270.490626880274
99.5,3.95977119548068,-14.75,83.1847976825683,71.3716097394803,270.491661710672
100,3.95966922946319,-14.75,83.1777892145857,71.3657169495158,270.49269654107
100.5,3.9595672634457,-14.75,83.170780746603,71.3598241595513,270.493731371468
101,3.95946529742821,-14.75,83.1637722786203,71.3539313695868,270.494766201867
101.5,3.95936337173356,-14.75,83.1567638106377,71.3480385796223,270.495801774548
102,3.95926203023866,-14.75,83.149755342655,71.3421457896578,270.496848101482
102.5,3.95916068874376,-14.75,83.1427468746724,71.3362529996933,270.497894428415
103,3.95905934724886,-14.75,83.1357384066897,71.3303602097288,270.498940755348
103.5,3.95895800575397,-14.75,83.1287299387071,71.3244674197643,270.499987082281
104,3.95885666425907,-14.75,83.1217214707244,71.3185746297998,270.501033409214
104.5,3.95875552005241,-14.75,83.1147130027418,71.3126818398353,270.502083660757
105,3.95865473085748,-14.75,83.1077045347591,71.3067890498708,270.503140974467
105.5,3.95855394166254,-14.75,83.1006960667765,71.3008962599063,270.504198288176
106,3.95845315246761,-14.75,83.0936875987938,71.2950034699418,270.505255601886
106.5,3.95835236327268,-14.75,83.0866791308112,71.2891106799773,270.506312915596
107,3.95825157407775,-14.75,83.0796706628285,71.2832178900128,270.507370229305
107.5,3.95815110523669,-14.75,83.0726621948459,71.2773251000483,270.508434399968
108,3.95805080900127,-14.75,83.0656537268632,71.2714323100839,270.509502265135
108.5,3.95795051276585,-14.75,83.0586452588805,71.2655395201193,270.510570130302
109,3.95785021653044,-14.75,83.0516367908979,71.2596467301549,270.51163799547
109.5,3.95774992029502,-14.75,83.0446283229152,71.2537539401904,270.512705860637
110,3.95764962405961,-14.75,83.0376198549326,71.2478611502259,270.513773725804
110.5,3.95754974613476,-14.75,83.0306113869499,71.2419683602614,270.514851185724
111,3.95744989372801,-14.75,83.0236029189673,71.2360755702969,270.515929230951
111.5,3.95735004132126,-14.75,83.0165944509846,71.2301827803324,270.517007276178
112,3.95725018891451,-14.75,83.009585983002,71.2242899903679,270.518085321404
112.5,3.95715033650776,-14.75,83.0025775150193,71.2183972004034,270.519163366631
113,3.95705057884195,-14.75,82.9955690470367,71.2125044104389,270.520243729939
113.5,3.95695112932944,-14.75,82.988560579054,71.2066116204744,270.521331633014
114,3.95685167981693,-14.75,82.9815521110713,71.2007188305099,270.52241953609
114.5,3.95675223030442,-14.75,82.9745436430887,71.1948260405454,270.523507439165
115,3.95665278079192,-14.75,82.967535175106,71.1889332505809,270.524595342241
115.5,3.95655333127941,-14.75,82.9605267071234,71.1830404606164,270.525683245316
116,3.95645416588964,-14.75,82.9535182391407,71.1771476706519,270.526778657492
116.5,3.95635525469519,-14.75,82.9465097711581,71.1712548806874,270.527880787815
117,3.95625634350075,-14.75,82.9395013031754,71.1653620907229,270.528982918138
117.5,3.9561574323063,-14.75,82.9324928351927,71.1594693007584,270.530085048461
118,3.95605852111186,-14.75,82.9254843672101,71.1535765107939,270.531187178784
118.5,3.95595960991742,-14.75,82.9184758992274,71.1476837208294,270.532289309107
119,3.95586069872297,-14.75,82.9114674312448,71.1417909308649,270.53339143943
119.5,3.95576178752853,-14.75,82.9044589632621,71.1358981409004,270.534493569753
120,3.95566287633408,-14.75,82.8974504952795,71.1300053509359,270.535595700076
120.5,3.95556396513964,-14.75,82.8904420272968,71.1241125609714,270.536697830399
121,3.95546505394519,-14.75,82.8834335593142,71.1182197710069,270.537799960722
121.5,3.95536621398286,-14.75,82.8764250913315,71.1123269810424,270.538904149481
122,3.9552679326613,-14.75,82.8694166233489,71.1064341910779,270.54002448161
122.5,3.95516965133974,-14.75,82.8624081553662,71.1005414011134,270.54114481374
123,3.95507137001819,-14.75,82.8553996873835,71.0946486111489,270.542265145869
123.5,3.95497308869663,-14.75,82.8483912194009,71.0887558211845,270.543385477999
124,3.95487480737507,-14.75,82.8413827514182,71.08286303122,270.544505810129
124.5,3.95477652605352,-14.75,82.8343742834356,71.0769702412555,270.545626142258
125,3.95467824473196,-14.75,82.8273658154529,71.071077451291,270.546746474388
125.5,3.9545799634104,-14.75,82.8203573474703,71.0651846613265,270.547866806518
126,3.95448168208885,-14.75,82.8133488794876,71.059291871362,270.548987138647
126.5,3.95438340076729,-14.75,82.806340411505,71.0533990813975,270.550107470777
127,3.95428511944573,-14.75,82.7993319435223,71.047506291433,270.551227802907
