time,voltage,curr_density,SOC,SOC_est,temp
0,3.6508029951813,-29.5,22,19.92682,278
0.5,3.65037052811755,-29.5,21.9859830640347,19.915034420071,278.008046061132
1,3.64996279793488,-29.5,21.9719661280694,19.903248840142,278.015829621329
1.5,3.6495693116525,-29.5,21.9579491921041,19.891463260213,278.023649953466
2,3.64918610117591,-29.5,21.9439322561388,19.879677680284,278.031500462549
2.5,3.64881174127957,-29.5,21.9299153201735,19.867892100355,278.039379151316
3,3.64844536981938,-29.5,21.9158983842081,19.856106520426,278.047284905621
3.5,3.64808566602779,-29.5,21.9018814482428,19.8443209404971,278.055214264841
4,3.64773202692763,-29.5,21.8878645122775,19.8325353605681,278.063165833831
4.5,3.64738393881901,-29.5,21.8738475763122,19.8207497806391,278.07113834822
5,3.64704096154276,-29.5,21.8598306403469,19.8089642007101,278.079130626588
5.5,3.6467029710858,-29.5,21.8458137043816,19.7971786207811,278.087142621306
6,3.64636999757433,-29.5,21.8317967684163,19.7853930408521,278.095174884517
6.5,3.6460411815397,-29.5,21.817779832451,19.7736074609231,278.103224182697
7,3.64571561186107,-29.5,21.8037628964857,19.7618218809941,278.111287008521
7.5,3.64539320127946,-29.5,21.7897459605204,19.7500363010651,278.11936299838
8,3.64507538780625,-29.5,21.7757290245551,19.7382507211361,278.127458425322
8.5,3.64475920765316,-29.5,21.7617120885897,19.7264651412071,278.135560777052
9,3.64444773439891,-29.5,21.7476951526244,19.7146795612782,278.143683213943
9.5,3.64413808567401,-29.5,21.7336782166591,19.7028939813492,278.151813467259
10,3.64383133166637,-29.5,21.7196612806938,19.6911084014202,278.159956121768
10.5,3.64352750715379,-29.5,21.7056443447285,19.6793228214912,278.168111298218
11,3.64322506197304,-29.5,21.6916274087632,19.6675372415622,278.176272370534
11.5,3.64292646072808,-29.5,21.6776104727979,19.6557516616332,278.184449745614
12,3.64262893376688,-29.5,21.6635935368326,19.6439660817042,278.192631634222
12.5,3.64233407282069,-29.5,21.6495766008673,19.6321805017752,278.200824712298
13,3.64204108946841,-29.5,21.635559664902,19.6203949218462,278.209025551436
13.5,3.64174958325242,-29.5,21.6215427289367,19.6086093419172,278.217232496339
14,3.64146072542021,-29.5,21.6075257929713,19.5968237619882,278.225450144766
14.5,3.64117274539254,-29.5,21.593508857006,19.5850381820592,278.233671293442
15,3.64088722491482,-29.5,21.5794919210407,19.5732526021302,278.24190210555
15.5,3.6406034302989,-29.5,21.5654749850754,19.5614670222013,278.250139393638
16,3.64032183679724,-29.5,21.5514580491101,19.5496814422723,278.258384941004
16.5,3.64004024329557,-29.5,21.5374411131448,19.5378958623433,278.26663048837
17,3.63975877113509,-29.5,21.5234241771795,19.5261102824143,278.274876460465
17.5,3.63948184025483,-29.5,21.5094072412142,19.5143247024853,278.283138328346
18,3.63920490937456,-29.5,21.4953903052489,19.5025391225563,278.291400196227
18.5,3.6389279784943,-29.5,21.4813733692836,19.4907535426273,278.299662064109
19,3.63865354257054,-29.5,21.4673564333183,19.4789679626983,278.307931734902
19.5,3.63838068469145,-29.5,21.4533394973529,19.4671823827693,278.316206340989
20,3.63810782681236,-29.5,21.4393225613876,19.4553968028403,278.324480947076
20.5,3.63783568061274,-29.5,21.4253056254223,19.4436112229113,278.332757448375
21,3.63756639730198,-29.5,21.411288689457,19.4318256429823,278.341041573589
21.5,3.63729711399121,-29.5,21.3972717534917,19.4200400630534,278.349325698803
22,3.63702783068045,-29.5,21.3832548175264,19.4082544831244,278.357609824017
22.5,3.63676102016465,-29.5,21.3692378815611,19.3964689031954,278.365899168269
23,3.63649488438229,-29.5,21.3552209455958,19.3846833232664,278.374189936601
23.5,3.63622874859992,-29.5,21.3412040096305,19.3728977433374,278.382480704933
24,3.63596364692075,-29.5,21.3271870736652,19.3611121634084,278.390772988169
24.5,3.6357002897443,-29.5,21.3131701376998,19.3493265834794,278.399067827003
25,3.63543693256784,-29.5,21.2991532017345,19.3375410035504,278.407362665837
25.5,3.63517357539138,-29.5,21.2851362657692,19.3257554236214,278.415657504671
26,3.6349125721389,-29.5,21.2711193298039,19.3139698436924,278.423954068501
26.5,3.63465167028718,-29.5,21.2571023938386,19.3021842637634,278.432250706638
27,3.63439076843547,-29.5,21.2430854578733,19.2903986838345,278.440547344776
27.5,3.63413105033923,-29.5,21.229068521908,19.2786131039055,278.44884386265
28,3.63387231957108,-29.5,21.2150515859427,19.2668275239765,278.457140280216
28.5,3.63361358880293,-29.5,21.2010346499774,19.2550419440475,278.465436697783
29,3.63335511088825,-29.5,21.1870177140121,19.2432563641185,278.473732844721
29.5,3.63309829898144,-29.5,21.1730007780468,19.2314707841895,278.482027208535
30,3.63284148707462,-29.5,21.1589838420815,19.2196852042605,278.490321572349
30.5,3.6325846751678,-29.5,21.1449669061161,19.2078996243315,278.498615936164
31,3.63232908077621,-29.5,21.1309499701508,19.1961140444025,278.506907637288
31.5,3.6320739638456,-29.5,21.1169330341855,19.1843284644735,278.515198294211
32,3.63181884691498,-29.5,21.1029160982202,19.1725428845445,278.523488951134
32.5,3.63156418536729,-29.5,21.0888991622549,19.1607573046155,278.531778019784
33,3.63131056226125,-29.5,21.0748822262896,19.1489717246866,278.540063466581
33.5,3.63105693915521,-29.5,21.0608652903243,19.1371861447576,278.548348913378
34,3.63080331604916,-29.5,21.046848354359,19.1254005648286,278.556634360175
34.5,3.63055137689184,-29.5,21.0328314183937,19.1136149848996,278.564910549626
35,3.63029964293561,-29.5,21.0188144824284,19.1018294049706,278.573185611004
35.5,3.63004790897937,-29.5,21.0047975464631,19.0900438250416,278.581460672382
36,3.62979617502313,-29.5,20.9907806104977,19.0782582451126,278.58973573376
36.5,3.6295444410669,-29.5,20.9767636745324,19.0664726651836,278.598010795138
37,3.62929270711066,-29.5,20.9627467385671,19.0546870852546,278.606285856515
37.5,3.62904110272503,-29.5,20.9487298026018,19.0429015053256,278.614559784868
38,3.62879137917036,-29.5,20.9347128666365,19.0311159253966,278.62281726637
38.5,3.6285416556157,-29.5,20.9206959306712,19.0193303454677,278.631074747872
39,3.62829193206103,-29.5,20.9066789947059,19.0075447655387,278.639332229374
39.5,3.62804220850636,-29.5,20.8926620587406,18.9957591856097,278.647589710876
40,3.62779248495169,-29.5,20.8786451227753,18.9839736056807,278.655847192377
40.5,3.62754276139702,-29.5,20.86462818681,18.9721880257517,278.664104673879
41,3.62729339208838,-29.5,20.8506112508447,18.9604024458227,278.672357116294
41.5,3.62704515996347,-29.5,20.8365943148793,18.9486168658937,278.680593382473
42,3.62679692783857,-29.5,20.822577378914,18.9368312859647,278.688829648652
42.5,3.62654869571367,-29.5,20.8085604429487,18.9250457060357,278.697065914831
43,3.62630046358876,-29.5,20.7945435069834,18.9132601261067,278.70530218101
43.5,3.62605223146386,-29.5,20.7805265710181,18.9014745461777,278.71353844719
44,3.62580399933896,-29.5,20.7665096350528,18.8896889662487,278.721774713369
44.5,3.62555620153004,-29.5,20.7524926990875,18.8779033863197,278.730001097874
45,3.6253090271849,-29.5,20.7384757631222,18.8661178063908,278.738213297164
45.5,3.62506185283975,-29.5,20.7244588271569,18.8543322264618,278.746425496454
46,3.62481467849461,-29.5,20.7104418911916,18.8425466465328,278.754637695744
46.5,3.62456750414947,-29.5,20.6964249552263,18.8307610666038,278.762849895034
47,3.62432032980433,-29.5,20.6824080192609,18.8189754866748,278.771062094324
47.5,3.62407315545918,-29.5,20.6683910832956,18.8071899067458,278.779274293614
48,3.62382626513506,-29.5,20.6543741473303,18.7954043268168,278.787477083821
48.5,3.62357957740805,-29.5,20.640357211365,18.7836187468878,278.795673162367
49,3.62333299211725,-29.5,20.6263402753997,18.7718331669588,278.80386471696
49.5,3.62308652053738,-29.5,20.6123233394344,18.7600475870298,278.812050675814
50,3.7176395923032,14.4350514027585,20.5983203205024,18.7482737086816,278.820227227244
50.5,3.71871814511728,14.75,20.6053286138915,18.7541663518461,278.815188330404
51,3.71908335501738,14.75,20.6123370818741,18.7600591418106,278.810615853595
51.5,3.71942955849356,14.75,20.6193455498568,18.7659519317751,278.806042383017
52,3.71976115439798,14.75,20.6263540178395,18.7718447217396,278.801472527263
52.5,3.7200808682759,14.75,20.6333624858221,18.7777375117041,278.796909055912
53,3.72038993825294,14.75,20.6403709538048,18.7836303016686,278.792354259052
53.5,3.72068933634103,14.75,20.6473794217874,18.7895230916331,278.787809891043
54,3.72098010308043,14.75,20.6543878897701,18.7954158815976,278.783277537443
54.5,3.72126250298819,14.75,20.6613963577527,18.8013086715621,278.778758612804
55,3.72153763751166,14.75,20.6684048257354,18.8072014615266,278.774253583744
55.5,3.72180538539454,14.75,20.675413293718,18.8130942514911,278.769764587599
56,3.7220673127698,14.75,20.6824217617007,18.8189870414556,278.765289823389
56.5,3.72232336407681,14.75,20.6894302296833,18.8248798314201,278.760830763237
57,3.72257390758583,14.75,20.696438697666,18.8307726213846,278.756387817919
57.5,3.72281927291967,14.75,20.7034471656487,18.836665411349,278.751961319971
58,3.72305975819521,14.75,20.7104556336313,18.8425582013135,278.747551538439
58.5,3.72329563542897,14.75,20.717464101614,18.848450991278,278.743158703108
59,3.72352720621191,14.75,20.7244725695966,18.8543437812425,278.738782764365
59.5,3.72375381658547,14.75,20.7314810375793,18.860236571207,278.734427765341
60,3.72397760333302,14.75,20.7384895055619,18.8661293611715,278.730085292245
60.5,3.66131944913668,-14.75,20.7314894477409,18.860243642555,278.732402818376
61,3.66113764247193,-14.75,20.7244809797582,18.8543508525905,278.734451149308
61.5,3.66096597515876,-14.75,20.7174725117755,18.848458062626,278.736510432801
62,3.66080181743749,-14.75,20.7104640437929,18.8425652726615,278.738578678
62.5,3.660643684253,-14.75,20.7034555758102,18.836672482697,278.740654654078
63,3.6604901385317,-14.75,20.6964471078276,18.8307796927325,278.742736816142
63.5,3.66034109607852,-14.75,20.6894386398449,18.824886902768,278.744825243796
64,3.66019563543071,-14.75,20.6824301718623,18.8189941128035,278.746918826076
64.5,3.66005405659722,-14.75,20.6754217038796,18.813101322839,278.749018136157
65,3.6599145210026,-14.75,20.668413235897,18.8072085328745,278.751120493409
65.5,3.65977826138919,-14.75,20.6614047679143,18.80131574291,278.753227758481
66,3.65964432225682,-14.75,20.6543962999317,18.7954229529455,278.755338485648
66.5,3.65951228102847,-14.75,20.647387831949,18.789530162981,278.75745202747
67,3.65938201895684,-14.75,20.6403793639663,18.7836373730165,278.759568191702
67.5,3.6592540184199,-14.75,20.6333708959837,18.777744583052,278.761687624239
68,3.6591275523383,-14.75,20.626362428001,18.7718517930875,278.763809214976
68.5,3.65900240400379,-14.75,20.6193539600184,18.7659590031231,278.765932615421
69,3.6588785013682,-14.75,20.6123454920357,18.7600662131586,278.768057687465
69.5,3.65875624198241,-14.75,20.6053370240531,18.7541734231941,278.770184844643
70,3.65863552772506,-14.75,20.5983285560704,18.7482806332296,278.772313759257
70.5,3.65851549436377,-14.75,20.5913200880878,18.7423878432651,278.774443448326
71,3.65839548703648,-14.75,20.5843116201051,18.7364950533006,278.77657316219
71.5,3.65827785440985,-14.75,20.5773031521225,18.7306022633361,278.778705137838
72,3.65816022178322,-14.75,20.5702946841398,18.7247094733716,278.780837113486
72.5,3.65804372314668,-14.75,20.5632862161571,18.7188166834071,278.782969872846
73,3.65792799352067,-14.75,20.5562777481745,18.7129238934426,278.785103163678
73.5,3.65781255699929,-14.75,20.5492692801918,18.7070311034781,278.787236568042
74,3.65769844720623,-14.75,20.5422608122092,18.7011383135136,278.789370486313
74.5,3.65758433741316,-14.75,20.5352523442265,18.6952455235491,278.791504404584
75,3.65747129352661,-14.75,20.5282438762439,18.6893527335846,278.793638354987
75.5,3.65735857525809,-14.75,20.5212354082612,18.6834599436201,278.795772315206
76,3.65724627930848,-14.75,20.5142269402786,18.6775671536556,278.79790611428
76.5,3.65713476405398,-14.75,20.5072184722959,18.6716743636911,278.800039615461
77,3.65702324879947,-14.75,20.5002100043133,18.6657815737266,278.802173116642
77.5,3.65691271207797,-14.75,20.4932015363306,18.6598887837621,278.804305772691
78,3.65680224215042,-14.75,20.4861930683479,18.6539959937976,278.806438371052
78.5,3.6566922483709,-14.75,20.4791846003653,18.6481032038331,278.808570303532
79,3.6565826920851,-14.75,20.4721761323826,18.6422104138686,278.810701624187
79.5,3.65647322108785,-14.75,20.4651676644,18.6363176239041,278.812832775158
80,3.65636446785335,-14.75,20.4581591964173,18.6304248339396,278.814962498115
80.5,3.65625571461886,-14.75,20.4511507284347,18.6245320439752,278.817092221072
81,3.65614745122568,-14.75,20.444142260452,18.6186392540107,278.819220649507
81.5,3.65603940661498,-14.75,20.4371337924694,18.6127464640462,278.821348499757
82,3.65593161311861,-14.75,20.4301253244867,18.6068536740817,278.82347544051
82.5,3.65582447732546,-14.75,20.4231168565041,18.6009608841172,278.825599999161
83,3.65571734153231,-14.75,20.4161083885214,18.5950680941527,278.827724557813
83.5,3.65561020573916,-14.75,20.4090999205387,18.5891753041882,278.829849116464
84,3.65550306994601,-14.75,20.4020914525561,18.5832825142237,278.831973675115
84.5,3.65539638195645,-14.75,20.3950829845734,18.5773897242592,278.834096013713
85,3.6552902492803,-14.75,20.3880745165908,18.5714969342947,278.83621559926
85.5,3.65518411660414,-14.75,20.3810660486081,18.5656041443302,278.838335184808
86,3.65507798392799,-14.75,20.3740575806255,18.5597113543657,278.840454770355
86.5,3.65497185125183,-14.75,20.3670491126428,18.5538185644012,278.842574355902
87,3.6548662152716,-14.75,20.3600406446602,18.5479257744367,278.844690507234
87.5,3.65476088824594,-14.75,20.3530321766775,18.5420329844722,278.846804522416
88,3.65465556122028,-14.75,20.3460237086949,18.5361401945077,278.848918537598
88.5,3.65455023419461,-14.75,20.3390152407122,18.5302474045432,278.85103255278
89,3.65444490716895,-14.75,20.3320067727295,18.5243546145787,278.853146567962
89.5,3.65434009492738,-14.75,20.3249983047469,18.5184618246142,278.855255814762
90,3.65423542232822,-14.75,20.3179898367642,18.5125690346497,278.857363768072
90.5,3.65413074972906,-14.75,20.3109813687816,18.5066762446852,278.859471721381
91,3.6540260771299,-14.75,20.3039729007989,18.5007834547207,278.861579674691
91.5,3.65392140453074,-14.75,20.2969644328163,18.4948906647562,278.863687628001
92,3.65381724636586,-14.75,20.2899559648336,18.4889978747918,278.865789439976
92.5,3.65371311147183,-14.75,20.282947496851,18.4831050848273,278.867890974144
93,3.6536089765778,-14.75,20.2759390288683,18.4772122948628,278.869992508311
93.5,3.65350484168377,-14.75,20.2689305608857,18.4713195048983,278.872094042479
94,3.65340076331272,-14.75,20.261922092903,18.4654267149338,278.874194730469
94.5,3.65329707409505,-14.75,20.2549136249203,18.4595339249693,278.876289592641
95,3.65319338487739,-14.75,20.2479051569377,18.4536411350048,278.878384454812
95.5,3.65308969565973,-14.75,20.240896688955,18.4477483450403,278.880479316984
96,3.65298600644207,-14.75,20.2338882209724,18.4418555550758,278.882574179156
96.5,3.65288242747493,-14.75,20.2268797529897,18.4359627651113,278.884667003964
97,3.65277910956064,-14.75,20.2198712850071,18.4300699751468,278.886755004672
97.5,3.65267579164635,-14.75,20.2128628170244,18.4241771851823,278.888843005381
98,3.65257247373206,-14.75,20.2058543490418,18.4182843952178,278.89093100609
98.5,3.65246915581777,-14.75,20.1988458810591,18.4123916052533,278.893019006799
99,3.65236598303939,-14.75,20.1918374130765,18.4064988152888,278.895103731863
99.5,3.65226297588754,-14.75,20.1848289450938,18.4006060253243,278.897184718822
100,3.65215996873569,-14.75,20.1778204771111,18.3947132353598,278.89926570578
100.5,3.65205696158385,-14.75,20.1708120091285,18.3888204453953,278.901346692738
101,3.651953954432,-14.75,20.1638035411458,18.3829276554308,278.903427679696
101.5,3.65185111381593,-14.75,20.1567950731632,18.3770348654663,278.905504127601
102,3.65174836804633,-14.75,20.1497866051805,18.3711420755018,278.907577990397
102.5,3.65164562227674,-14.75,20.1427781371979,18.3652492855373,278.909651853193
103,3.65154287650715,-14.75,20.1357696692152,18.3593564955729,278.911725715988
103.5,3.65144013073755,-14.75,20.1287612012326,18.3534637056084,278.913799578784
104,3.6513375632554,-14.75,20.1217527332499,18.3475709156439,278.915867636774
104.5,3.65123503834681,-14.75,20.1147442652673,18.3416781256794,278.917934308624
105,3.65113251343822,-14.75,20.1077357972846,18.3357853357149,278.920000980474
105.5,3.65102998852963,-14.75,20.1007273293019,18.3298925457504,278.922067652324
106,3.65092746362104,-14.75,20.0937188613193,18.3239997557859,278.924134324175
106.5,3.65082512148245,-14.75,20.0867103933366,18.3181069658214,278.92619392605
107,3.65072278358117,-14.75,20.079701925354,18.3122141758569,278.928253364015
107.5,3.65062044567989,-14.75,20.0726934573713,18.3063213858924,278.930312801981
108,3.65051810777861,-14.75,20.0656849893887,18.3004285959279,278.932372239947
108.5,3.65041580320432,-14.75,20.058676521406,18.2945358059634,278.934430077878
109,3.65031369133339,-14.75,20.0516680534234,18.2886430159989,278.936478664085
109.5,3.65021157946247,-14.75,20.0446595854407,18.2827502260344,278.938527250292
110,3.65010946759155,-14.75,20.0376511174581,18.2768574360699,278.9405758365
110.5,3.65000735572063,-14.75,20.0306426494754,18.2709646461054,278.942624422707
111,3.64990524384971,-14.75,20.0236341814927,18.2650718561409,278.944673008914
111.5,3.64980313197879,-14.75,20.0166257135101,18.2591790661764,278.946721595122
112,3.64970102010787,-14.75,20.0096172455274,18.2532862762119,278.948770181329
112.5,3.64959890823695,-14.75,20.0026087775448,18.2473934862474,278.950818767536
113,3.64949679636603,-14.75,19.9956003095621,18.2415006962829,278.952867353744
113.5,3.64939479596885,-14.75,19.9885918415795,18.2356079063184,278.954908870993
114,3.64929291269107,-14.75,19.9815833735968,18.2297151163539,278.956942961271
114.5,3.6491910294133,-14.75,19.9745749056142,18.2238223263894,278.958977051549
115,3.64908914613553,-14.75,19.9675664376315,18.2179295364249,278.961011141827
115.5,3.64898726285775,-14.75,19.9605579696489,18.2120367464605,278.963045232105
116,3.64888537957998,-14.75,19.9535495016662,18.206143956496,278.965079322383
116.5,3.64878349630221,-14.75,19.9465410336835,18.2002511665315,278.967113412661
117,3.64868161302444,-14.75,19.9395325657009,18.194358376567,278.969147502939
117.5,3.64857972974666,-14.75,19.9325240977182,18.1884655866025,278.971181593217
118,3.64847784646889,-14.75,19.9255156297356,18.182572796638,278.973215683495
118.5,3.64837609681692,-14.75,19.9185071617529,18.1766800066735,278.975237853005
119,3.6482743749507,-14.75,19.9114986937703,18.170787216709,278.977257543746
119.5,3.64817265308447,-14.75,19.9044902257876,18.1648944267445,278.979277234488
120,3.64807093121824,-14.75,19.897481757805,18.15900163678,278.98129692523
120.5,3.64796920935202,-14.75,19.8904732898223,18.1531088468155,278.983316615971
121,3.64786748748579,-14.75,19.8834648218397,18.147216056851,278.985336306713
121.5,3.64776576561956,-14.75,19.876456353857,18.1413232668865,278.987355997455
122,3.64766404375333,-14.75,19.8694478858743,18.135430476922,278.989375688197
122.5,3.64756232188711,-14.75,19.8624394178917,18.1295376869575,278.991395378938
123,3.64746061869681,-14.75,19.855430949909,18.123644896993,278.993412683562
123.5,3.64735900795426,-14.75,19.8484224819264,18.1177521070285,278.995418176657
124,3.64725739721171,-14.75,19.8414140139437,18.111859317064,278.997423669751
124.5,3.64715578646916,-14.75,19.8344055459611,18.1059665270995,278.999429162846
125,3.64705417572661,-14.75,19.8273970779784,18.100073737135,279.001434655941
125.5,3.64695256498406,-14.75,19.8203886099958,18.0941809471705,279.003440149036
126,3.64685095424152,-14.75,19.8133801420131,18.088288157206,279.00544564213
126.5,3.64674934349897,-14.75,19.8063716740304,18.0823953672415,279.007451135225
127,3.64664773275642,-14.75,19.7993632060478,18.076502577277,279.00945662832
