time,voltage,curr_density,SOC,SOC_est,temp
0,3.85167335869223,-29.5,65,56.08165,308
0.5,3.85132550447027,-29.5,64.9859830640347,56.069864420071,308.004840404835
1,3.85100814955525,-29.5,64.9719661280694,56.058078840142,308.009497246143
1.5,3.8507084348364,-29.5,64.9579491921041,56.046293260213,308.014180005541
2,3.85042265640662,-29.5,64.9439322561388,56.0345076802841,308.018886117759
2.5,3.85014833541238,-29.5,64.9299153201735,56.0227221003551,308.023613355881
3,3.84988237320493,-29.5,64.9158983842081,56.010936520426,308.02835712279
3.5,3.84962524100365,-29.5,64.9018814482429,55.9991509404971,308.033119410934
4,3.84937475304647,-29.5,64.8878645122775,55.9873653605681,308.037896350498
4.5,3.8491300532078,-29.5,64.8738475763122,55.9755797806391,308.04268653846
5,3.84889186678355,-29.5,64.8598306403469,55.9637942007101,308.047492226153
5.5,3.84865800677449,-29.5,64.8458137043816,55.9520086207811,308.0523084601
6,3.84842899127816,-29.5,64.8317967684163,55.9402230408521,308.05713686407
6.5,3.8482030916676,-29.5,64.817779832451,55.9284374609231,308.061973180772
7,3.84798154429666,-29.5,64.8037628964857,55.9166518809941,308.06682069636
7.5,3.84776380474359,-29.5,64.7897459605204,55.9048663010651,308.071678176969
8,3.84754850020165,-29.5,64.7757290245551,55.8930807211362,308.07654206068
8.5,3.8473365994098,-29.5,64.7617120885898,55.8812951412072,308.081414942733
9,3.84712781022717,-29.5,64.7476951526245,55.8695095612782,308.08629609406
9.5,3.84692099392412,-29.5,64.7336782166591,55.8577239813492,308.09118248564
10,3.84671692367651,-29.5,64.7196612806939,55.8459384014202,308.096076167195
10.5,3.84651545713308,-29.5,64.7056443447285,55.8341528214912,308.10097670258
11,3.8463156257439,-29.5,64.6916274087632,55.8223672415622,308.105881515396
11.5,3.84611805535256,-29.5,64.6776104727979,55.8105816616332,308.110792208174
12,3.84592270669722,-29.5,64.6635935368326,55.7987960817042,308.115708608616
12.5,3.84572873971072,-29.5,64.6495766008673,55.7870105017752,308.120628520186
13,3.84553666819973,-29.5,64.635559664902,55.7752249218462,308.125553203533
13.5,3.84534741796494,-29.5,64.6215427289367,55.7634393419172,308.130484762609
14,3.84515893152969,-29.5,64.6075257929714,55.7516537619883,308.13541818314
14.5,3.84497044509445,-29.5,64.5935088570061,55.7398681820593,308.140351603671
15,3.84478534256478,-29.5,64.5794919210408,55.7280826021303,308.145292729548
15.5,3.84460110345759,-29.5,64.5654749850754,55.7162970222013,308.150235821486
16,3.84441686435041,-29.5,64.5514580491101,55.7045114422723,308.155178913424
16.5,3.84423562355003,-29.5,64.5374411131448,55.6927258623433,308.160128206339
17,3.84405510222305,-29.5,64.5234241771795,55.6809402824143,308.165078987239
17.5,3.84387458089608,-29.5,64.5094072412142,55.6691547024853,308.170029768139
18,3.84369674345315,-29.5,64.4953903052489,55.6573691225563,308.174985488843
18.5,3.84351951022695,-29.5,64.4813733692836,55.6455835426273,308.179942321633
19,3.84334227700074,-29.5,64.4673564333183,55.6337979626983,308.184899154424
19.5,3.84316746692571,-29.5,64.453339497353,55.6220123827693,308.189859800464
20,3.84299316727827,-29.5,64.4393225613877,55.6102268028403,308.19482124975
20.5,3.84281886763083,-29.5,64.4253056254223,55.5984412229114,308.199782699036
21,3.84264677218191,-29.5,64.411288689457,55.5866556429824,308.204746944171
21.5,3.84247510986467,-29.5,64.3972717534917,55.5748700630534,308.209711738697
22,3.84230344754743,-29.5,64.3832548175264,55.5630844831244,308.214676533224
22.5,3.84213380390536,-29.5,64.3692378815611,55.5512989031954,308.219643224597
23,3.84196452904799,-29.5,64.3552209455958,55.5395133232664,308.224610262498
23.5,3.84179525419061,-29.5,64.3412040096305,55.5277277433374,308.229577300399
24,3.8416278405458,-29.5,64.3271870736652,55.5159421634084,308.234545424523
24.5,3.84146074179099,-29.5,64.3131701376999,55.5041565834794,308.239513732421
25,3.84129364303618,-29.5,64.2991532017346,55.4923710035504,308.244482040319
25.5,3.841128271107,-29.5,64.2851362657693,55.4805854236214,308.249450713538
26,3.84096316854379,-29.5,64.271119329804,55.4687998436925,308.254419443744
26.5,3.84079806598057,-29.5,64.2571023938387,55.4570142637635,308.25938817395
27,3.84063457488728,-29.5,64.2430854578733,55.4452286838345,308.264356617782
27.5,3.84047131437492,-29.5,64.229068521908,55.4334431039055,308.269325020638
28,3.84030805386256,-29.5,64.2150515859427,55.4216575239765,308.274293423494
28.5,3.84014701177641,-29.5,64.2010346499774,55.4098719440475,308.279260224163
29,3.83998625912918,-29.5,64.1870177140121,55.3980863641185,308.284226815795
29.5,3.83982550648194,-29.5,64.1730007780468,55.3863007841895,308.289193407426
30,3.8396647538347,-29.5,64.1589838420815,55.3745152042605,308.294159999057
30.5,3.83950400118747,-29.5,64.1449669061162,55.3627296243315,308.299126590689
31,3.83934324854023,-29.5,64.1309499701509,55.3509440444025,308.30409318232
31.5,3.83918520591648,-29.5,64.1169330341855,55.3391584644735,308.309055885855
32,3.83902745070156,-29.5,64.1029160982202,55.3273728845446,308.314018177042
32.5,3.83886969548665,-29.5,64.0888991622549,55.3155873046156,308.318980468228
33,3.83871194027173,-29.5,64.0748822262896,55.3038017246866,308.323942759415
33.5,3.83855418505681,-29.5,64.0608652903243,55.2920161447576,308.328905050601
34,3.8383964298419,-29.5,64.046848354359,55.2802305648286,308.333867341788
34.5,3.838241140511,-29.5,64.0328314183937,55.2684449848996,308.338823897794
35,3.83808605503481,-29.5,64.0188144824284,55.2566594049706,308.343779979673
35.5,3.83793096955863,-29.5,64.0047975464631,55.2448738250416,308.348736061552
36,3.83777588408245,-29.5,63.9907806104978,55.2330882451126,308.353692143432
36.5,3.83762079860626,-29.5,63.9767636745324,55.2213026651836,308.358648225311
37,3.83746571313008,-29.5,63.9627467385671,55.2095170852546,308.36360430719
37.5,3.8373129092063,-29.5,63.9487298026018,55.1977315053256,308.368553075266
38,3.83716024275599,-29.5,63.9347128666365,55.1859459253967,308.373501402654
38.5,3.83700757630568,-29.5,63.9206959306712,55.1741603454677,308.378449730042
39,3.83685490985536,-29.5,63.9066789947059,55.1623747655387,308.383398057429
39.5,3.83670224340505,-29.5,63.8926620587406,55.1505891856097,308.388346384817
40,3.83654957695474,-29.5,63.8786451227753,55.1388036056807,308.393294712205
40.5,3.83639905226463,-29.5,63.86462818681,55.1270180257517,308.398234318323
41,3.83624861056354,-29.5,63.8506112508447,55.1152324458227,308.403173586508
41.5,3.83609816886244,-29.5,63.8365943148794,55.1034468658937,308.408112854694
42,3.83594772716134,-29.5,63.822577378914,55.0916612859647,308.41305212288
42.5,3.83579728546024,-29.5,63.8085604429487,55.0798757060357,308.417991391065
43,3.83564684375915,-29.5,63.7945435069834,55.0680901261067,308.422930659251
43.5,3.8354984375012,-29.5,63.7805265710181,55.0563045461777,308.427859884853
44,3.83535006807837,-29.5,63.7665096350528,55.0445189662488,308.432788928715
44.5,3.83520169865554,-29.5,63.7524926990875,55.0327333863198,308.437717972578
45,3.83505332923271,-29.5,63.7384757631222,55.0209478063908,308.442647016441
45.5,3.83490495980988,-29.5,63.7244588271569,55.0091622264618,308.447576060303
46,3.83475659380363,-29.5,63.7104418911916,54.9973766465328,308.452505084454
46.5,3.83461017416431,-29.5,63.6964249552263,54.9855910666038,308.457422879103
47,3.83446375452499,-29.5,63.682408019261,54.9738054866748,308.462340673752
47.5,3.83431733488567,-29.5,63.6683910832957,54.9620199067458,308.467258468401
48,3.83417091524635,-29.5,63.6543741473303,54.9502343268168,308.47217626305
48.5,3.83402449560703,-29.5,63.640357211365,54.9384487468878,308.477094057699
49,3.83387810086558,-29.5,63.6263402753997,54.9266631669588,308.482011693376
49.5,3.83373285125307,-29.5,63.6123233394344,54.9148775870298,308.486922017462
50,3.83358776419527,-29.4999999993712,63.5983064034691,54.9030920071009,308.491831246509
50.5,3.89815695421868,14.75,63.6053078629838,54.9089789042754,308.488840727318
51,3.89846459942583,14.75,63.6123163309664,54.9148716942399,308.486191663274
51.5,3.89874836854966,14.75,63.6193247989491,54.9207644842044,308.483547777634
52,3.89901324573087,14.75,63.6263332669318,54.9266572741689,308.480911703972
52.5,3.89926443362922,14.75,63.6333417349144,54.9325500641334,308.478283756518
53,3.89950248125751,14.75,63.6403502028971,54.9384428540979,308.475666071195
53.5,3.89973039791341,14.75,63.6473586708797,54.9443356440624,308.473058212626
54,3.89994874383024,14.75,63.6543671388623,54.9502284340268,308.470461567356
54.5,3.90015918818372,14.75,63.661375606845,54.9561212239914,308.467875689342
55,3.90036117528712,14.75,63.6683840748277,54.9620140139559,308.46530319614
55.5,3.9005581418882,14.75,63.6753925428103,54.9679068039203,308.462739808541
56,3.90074926017123,14.75,63.682401010793,54.9737995938848,308.460187810668
56.5,3.90093522203919,14.75,63.6894094787756,54.9796923838493,308.457646902034
57,3.90111566030695,14.75,63.6964179467583,54.9855851738138,308.455119206881
57.5,3.90129150889022,14.75,63.7034264147409,54.9914779637783,308.452603652676
58,3.90146347576876,14.75,63.7104348827236,54.9973707537428,308.450099179008
58.5,3.90163181695627,14.75,63.7174433507062,55.0032635437073,308.447605748622
59,3.90179676737345,14.75,63.7244518186889,55.0091563336718,308.445123326037
59.5,3.90195849034873,14.75,63.7314602866715,55.0150491236363,308.442652077749
60,3.86991167740753,-7.58753258689948,63.738462386475,55.020936559172,308.440195557117
60.5,3.85940384492051,-14.75,63.731460005891,55.0150488875532,308.441574713851
61,3.85924850551952,-14.75,63.7244515379084,55.0091560975887,308.442756819321
61.5,3.85910759154934,-14.75,63.7174430699257,55.0032633076242,308.44394802612
62,3.85897753463803,-14.75,63.7104346019431,54.9973705176597,308.445147138862
62.5,3.85885608788263,-14.75,63.7034261339604,54.9914777276953,308.446353149868
63,3.85874189601389,-14.75,63.6964176659778,54.9855849377308,308.447565440351
63.5,3.85863309929269,-14.75,63.6894091979951,54.9796921477663,308.448782669142
64,3.85852905172642,-14.75,63.6824007300124,54.9737993578018,308.450004405951
64.5,3.85842908165096,-14.75,63.6753922620298,54.9679065678373,308.451230135883
65,3.8583328046504,-14.75,63.6683837940471,54.9620137778728,308.452459537869
65.5,3.85823986301685,-14.75,63.6613753260645,54.9561209879083,308.453692290316
66,3.85814962700453,-14.75,63.6543668580818,54.9502281979438,308.454927771783
66.5,3.85806182694236,-14.75,63.6473583900992,54.9443354079793,308.45616569926
67,3.85797622194868,-14.75,63.6403499221165,54.9384426180148,308.457405777327
67.5,3.85789324445139,-14.75,63.6333414541339,54.9325498280503,308.458648356736
68,3.85781109484942,-14.75,63.6263329861512,54.9266570380858,308.459891695221
68.5,3.85773134721042,-14.75,63.6193245181686,54.9207642481213,308.461137168997
69,3.85765273965694,-14.75,63.6123160501859,54.9148714581568,308.462383569381
69.5,3.85757542875418,-14.75,63.6053075822033,54.9089786681923,308.463631023623
70,3.85749977190549,-14.75,63.5982991142206,54.9030858782278,308.464879671728
70.5,3.8574247539948,-14.75,63.591290646238,54.8971930882633,308.466128758577
71,3.85735140582713,-14.75,63.5842821782553,54.8913002982988,308.467378840608
71.5,3.85727872517776,-14.75,63.5772737102726,54.8854075083343,308.468629220343
72,3.85720700188932,-14.75,63.57026524229,54.8795147183698,308.469880027046
72.5,3.85713632148661,-14.75,63.5632567743073,54.8736219284053,308.47113113025
73,3.85706608690978,-14.75,63.5562483063247,54.8677291384408,308.47238235022
73.5,3.8569970822342,-14.75,63.549239838342,54.8618363484763,308.47363367661
74,3.85692866564426,-14.75,63.5422313703594,54.8559435585118,308.474884912552
74.5,3.85686132341069,-14.75,63.5352229023767,54.8500507685474,308.476135983257
75,3.85679398117713,-14.75,63.5282144343941,54.8441579785829,308.477387053963
75.5,3.85672663894357,-14.75,63.5212059664114,54.8382651886184,308.478638124668
76,3.85666113068242,-14.75,63.5141974984287,54.8323723986539,308.479888138384
76.5,3.85659565532925,-14.75,63.5071890304461,54.8264796086894,308.481138133133
77,3.85653017997607,-14.75,63.5001805624634,54.8205868187249,308.482388127882
77.5,3.8564656433005,-14.75,63.4931720944808,54.8146940287604,308.483637036307
78,3.85640170425099,-14.75,63.4861636264981,54.8088012387959,308.484885253106
78.5,3.85633776520147,-14.75,63.4791551585155,54.8029084488314,308.486133469904
79,3.85627413361433,-14.75,63.4721466905328,54.7970156588669,308.487381132283
79.5,3.85621147767824,-14.75,63.4651382225502,54.7911228689024,308.488627035358
80,3.85614882174215,-14.75,63.4581297545675,54.7852300789379,308.489872938433
80.5,3.85608616580605,-14.75,63.4511212865849,54.7793372889734,308.491118841509
81,3.85602445322615,-14.75,63.4441128186022,54.7734444990089,308.492362348884
81.5,3.85596288379698,-14.75,63.4371043506195,54.7675517090444,308.493605492721
82,3.85590131436782,-14.75,63.4300958826369,54.7616589190799,308.494848636558
82.5,3.85584020725596,-14.75,63.4230874146542,54.7557661291154,308.496090238568
83,3.85577956828325,-14.75,63.4160789466716,54.7498733391509,308.497330279336
83.5,3.85571892931055,-14.75,63.4090704786889,54.7439805491864,308.498570320104
84,3.85565839125128,-14.75,63.4020620107063,54.7380877592219,308.499809932412
84.5,3.85559855639404,-14.75,63.3950535427236,54.7321949692574,308.501046559048
85,3.8555387215368,-14.75,63.388045074741,54.7263021792929,308.502283185685
85.5,3.85547888667956,-14.75,63.3810366067583,54.7204093893285,308.503519812321
86,3.85541958100692,-14.75,63.3740281387757,54.714516599364,308.504753678627
86.5,3.85536044787352,-14.75,63.367019670793,54.7086238093995,308.505986644935
87,3.85530131474011,-14.75,63.3600112028103,54.702731019435,308.507219611242
87.5,3.85524241848577,-14.75,63.3530027348277,54.6968382294705,308.508451100477
88,3.85518390424668,-14.75,63.345994266845,54.690945439506,308.509680207633
88.5,3.8551253900076,-14.75,63.3389857988624,54.6850526495415,308.510909314789
89,3.85506688486073,-14.75,63.3319773308797,54.679159859577,308.512138352415
89.5,3.85500917027012,-14.75,63.3249688628971,54.6732670696125,308.513361344481
90,3.85495145567952,-14.75,63.3179603949144,54.667374279648,308.514584336548
90.5,3.85489374108891,-14.75,63.3109519269318,54.6614814896835,308.515807328614
91,3.85483602649831,-14.75,63.3039434589491,54.655588699719,308.517030320681
91.5,3.85477831190771,-14.75,63.2969349909664,54.6496959097545,308.518253312747
92,3.8547205973171,-14.75,63.2899265229838,54.64380311979,308.519476304814
92.5,3.85466312542662,-14.75,63.2829180550011,54.6379103298255,308.520696996833
93,3.85460631434449,-14.75,63.2759095870185,54.632017539861,308.521911426434
93.5,3.85454950326236,-14.75,63.2689011190358,54.6261247498965,308.523125856035
94,3.85449269218023,-14.75,63.2618926510532,54.620231959932,308.524340285635
94.5,3.8544358810981,-14.75,63.2548841830705,54.6143391699675,308.525554715236
95,3.85437907001597,-14.75,63.2478757150879,54.608446380003,308.526769144836
95.5,3.85432225893384,-14.75,63.2408672471052,54.6025535900385,308.527983574437
96,3.85426584706209,-14.75,63.2338587791225,54.596660800074,308.529193304513
96.5,3.85420979512411,-14.75,63.2268503111399,54.5907680101095,308.530398797431
97,3.85415374318612,-14.75,63.2198418431572,54.584875220145,308.531604290349
97.5,3.85409769124813,-14.75,63.2128333751746,54.5789824301805,308.532809783267
98,3.85404163931015,-14.75,63.2058249071919,54.5730896402161,308.534015276186
98.5,3.85398558737216,-14.75,63.1988164392093,54.5671968502516,308.535220769104
99,3.85392953543417,-14.75,63.1918079712266,54.5613040602871,308.536426262022
99.5,3.85387399850949,-14.75,63.184799503244,54.5554112703226,308.537624531041
100,3.85381860421575,-14.75,63.1777910352613,54.5495184803581,308.538820799428
100.5,3.853763209922,-14.75,63.1707825672787,54.5436256903936,308.540017067816
101,3.85370781562825,-14.75,63.163774099296,54.5377329004291,308.541213336204
101.5,3.85365242133451,-14.75,63.1567656313133,54.5318401104646,308.542409604591
102,3.85359702704076,-14.75,63.1497571633307,54.5259473205001,308.543605872979
102.5,3.85354165643897,-14.75,63.142748695348,54.5200545305356,308.544801761568
103,3.85348684904786,-14.75,63.1357402273654,54.5141617405711,308.545988621492
103.5,3.85343204165674,-14.75,63.1287317593827,54.5082689506066,308.547175481417
104,3.85337723426563,-14.75,63.1217232914001,54.5023761606421,308.548362341341
104.5,3.85332242687452,-14.75,63.1147148234174,54.4964833706776,308.549549201266
105,3.8532676194834,-14.75,63.1077063554348,54.4905905807131,308.55073606119
105.5,3.85321281209229,-14.75,63.1006978874521,54.4846977907486,308.551922921115
106,3.85315816422746,-14.75,63.0936894194695,54.4788050007841,308.553106949501
106.5,3.85310389284806,-14.75,63.0866809514868,54.4729122108196,308.554284295399
107,3.85304962146865,-14.75,63.0796724835042,54.4670194208551,308.555461641297
107.5,3.85299535008925,-14.75,63.0726640155215,54.4611266308906,308.556638987194
108,3.85294107870985,-14.75,63.0656555475389,54.4552338409261,308.557816333092
108.5,3.85288680733045,-14.75,63.0586470795562,54.4493410509616,308.55899367899
109,3.85283253595104,-14.75,63.0516386115735,54.4434482609972,308.560171024887
109.5,3.8527785403154,-14.75,63.0446301435909,54.4375554710327,308.56134304682
110,3.8527247658911,-14.75,63.0376216756082,54.4316626810682,308.56251079768
110.5,3.85267099146681,-14.75,63.0306132076256,54.4257698911037,308.56367854854
111,3.85261721704251,-14.75,63.0236047396429,54.4198771011392,308.5648462994
111.5,3.85256344261822,-14.75,63.0165962716603,54.4139843111747,308.56601405026
112,3.85250966819392,-14.75,63.0095878036776,54.4080915212102,308.56718180112
112.5,3.85245589376963,-14.75,63.002579335695,54.4021987312457,308.56834955198
113,3.85240249806298,-14.75,62.9955708677123,54.3963059412812,308.569509456647
113.5,3.85234918997315,-14.75,62.9885623997296,54.3904131513167,308.570667546086
114,3.85229588188333,-14.75,62.981553931747,54.3845203613522,308.571825635526
114.5,3.8522425737935,-14.75,62.9745454637643,54.3786275713877,308.572983724966
115,3.85218926570368,-14.75,62.9675369957817,54.3727347814232,308.574141814405
115.5,3.85213595761385,-14.75,62.960528527799,54.3668419914587,308.575299903845
116,3.85208268022038,-14.75,62.9535200598164,54.3609492014942,308.576457318318
116.5,3.85202981466244,-14.75,62.9465115918337,54.3550564115297,308.577605677151
117,3.85197694910451,-14.75,62.9395031238511,54.3491636215652,308.578754035984
117.5,3.85192408354657,-14.75,62.9324946558684,54.3432708316007,308.579902394817
118,3.85187121798863,-14.75,62.9254861878858,54.3373780416362,308.58105075365
118.5,3.8518183524307,-14.75,62.9184777199031,54.3314852516717,308.582199112483
119,3.85176548687276,-14.75,62.9114692519205,54.3255924617072,308.583347471316
119.5,3.85171275967504,-14.75,62.9044607839378,54.3196996717427,308.584492640558
120,3.85166031773621,-14.75,62.8974523159551,54.3138068817782,308.585631233781
120.5,3.85160787579738,-14.75,62.8904438479725,54.3079140918137,308.586769827005
121,3.85155543385855,-14.75,62.8834353799898,54.3020213018493,308.587908420228
121.5,3.85150299191971,-14.75,62.8764269120072,54.2961285118847,308.589047013451
122,3.85145054998088,-14.75,62.8694184440245,54.2902357219202,308.590185606674
122.5,3.85139810804205,-14.75,62.8624099760419,54.2843429319558,308.591324199898
123,3.85134590411366,-14.75,62.8554015080592,54.2784501419913,308.592457070666
123.5,3.85129386982185,-14.75,62.8483930400766,54.2725573520268,308.593585862885
124,3.85124183553004,-14.75,62.8413845720939,54.2666645620623,308.594714655103
124.5,3.85118980123822,-14.75,62.8343761041112,54.2607717720978,308.595843447322
125,3.85113776694641,-14.75,62.8273676361286,54.2548789821333,308.59697223954
125.5,3.8510857326546,-14.75,62.8203591681459,54.2489861921688,308.598101031758
126,3.85103369836279,-14.75,62.8133507001633,54.2430934022043,308.599229823977
126.5,3.85098215610468,-14.75,62.8063422321806,54.2372006122398,308.600346253132
127,3.85093070679189,-14.75,62.799333764198,54.2313078222753,308.601460346901
