time,voltage,curr_density,SOC,SOC_est,temp
0,3.93243118562575,-29.5,78,67.01218,319
0.5,3.93208211272677,-29.5,77.9859830640347,67.000394420071,319.003430771034
1,3.93176106290547,-29.5,77.9719661280694,66.988608840142,319.006722812768
1.5,3.93145689245718,-29.5,77.9579491921041,66.976823260213,319.010043103882
2,3.93116529399392,-29.5,77.9439322561388,66.965037680284,319.013388054279
2.5,3.93088394967595,-29.5,77.9299153201734,66.953252100355,319.016755678879
3,3.93061114064059,-29.5,77.9158983842081,66.9414665204261,319.02014414262
3.5,3.93034617935429,-29.5,77.9018814482429,66.9296809404971,319.023553576084
4,3.93008691562536,-29.5,77.8878645122775,66.9178953605681,319.026979332332
4.5,3.92983325990863,-29.5,77.8738475763122,66.9061097806391,319.030422087967
5,3.92958460248546,-29.5,77.8598306403469,66.8943242007101,319.03388087561
5.5,3.92934044486456,-29.5,77.8458137043816,66.8825386207811,319.037354856082
6,3.9291003734758,-29.5,77.8317967684163,66.8707530408521,319.040843280068
6.5,3.92886403479785,-29.5,77.817779832451,66.8589674609231,319.04434545732
7,3.92863112110865,-29.5,77.8037628964857,66.8471818809941,319.047860741667
7.5,3.92840169106342,-29.5,77.7897459605203,66.8353963010651,319.051389914001
8,3.92817563882629,-29.5,77.775729024555,66.8236107211361,319.054932990716
8.5,3.92795065192213,-29.5,77.7617120885897,66.8118251412071,319.058480669862
9,3.92772982084091,-29.5,77.7476951526244,66.8000395612781,319.062046302913
9.5,3.92750978549924,-29.5,77.7336782166591,66.7882539813492,319.065615565241
10,3.92729352933777,-29.5,77.7196612806938,66.7764684014202,319.069202063981
10.5,3.92707785528932,-29.5,77.7056443447285,66.7646828214912,319.072791347648
11,3.92686564639132,-29.5,77.6916274087632,66.7528972415622,319.076397209181
11.5,3.92665384790748,-29.5,77.6776104727979,66.7411116616332,319.080005122671
12,3.92644524792182,-29.5,77.6635935368326,66.7293260817042,319.083629027774
12.5,3.92623691906323,-29.5,77.6495766008673,66.7175405017752,319.087254341502
13,3.92603156160386,-29.5,77.6355596649019,66.7057549218462,319.090895092975
13.5,3.92582636126115,-29.5,77.6215427289366,66.6939693419172,319.094536690088
14,3.92562394003517,-29.5,77.6075257929713,66.6821837619882,319.09819324507
14.5,3.92542158143445,-29.5,77.5935088570061,66.6703981820593,319.101850147941
15,3.9252218361354,-29.5,77.5794919210407,66.6586126021303,319.105521567954
15.5,3.92502209083636,-29.5,77.5654749850754,66.6468270222013,319.109192987966
16,3.92482590619846,-29.5,77.5514580491101,66.6350414422723,319.112884945414
16.5,3.92462974558945,-29.5,77.5374411131448,66.6232558623433,319.116577041458
17,3.92443358498043,-29.5,77.5234241771795,66.6114702824143,319.120269137502
17.5,3.92423742437142,-29.5,77.5094072412142,66.5996847024853,319.123961233545
18,3.92404499603108,-29.5,77.4953903052489,66.5878991225563,319.127675698435
18.5,3.92385283534988,-29.5,77.4813733692835,66.5761135426273,319.131391767504
19,3.92366067466869,-29.5,77.4673564333182,66.5643279626983,319.135107836572
19.5,3.92346943804301,-29.5,77.4533394973529,66.5525423827693,319.138829659517
20,3.92328059066552,-29.5,77.4393225613876,66.5407568028403,319.142566359747
20.5,3.92309174328803,-29.5,77.4253056254223,66.5289712229113,319.146303059976
21,3.92290289591054,-29.5,77.411288689457,66.5171856429823,319.150039760206
21.5,3.92271589431213,-29.5,77.3972717534917,66.5054000630533,319.153788263676
22,3.92253000159481,-29.5,77.3832548175264,66.4936144831243,319.157543858131
22.5,3.92234410887749,-29.5,77.369237881561,66.4818289031953,319.161299452585
23,3.92215821616017,-29.5,77.3552209455957,66.4700433232663,319.16505504704
23.5,3.92197491455882,-29.5,77.3412040096304,66.4582577433374,319.168827555131
24,3.92179169169285,-29.5,77.3271870736651,66.4464721634084,319.172600577171
24.5,3.92160846882687,-29.5,77.3131701376998,66.4346865834794,319.176373599212
25,3.92142601702895,-29.5,77.2991532017345,66.4229010035504,319.180151719803
25.5,3.9212452317992,-29.5,77.2851362657692,66.4111154236214,319.183940860283
26,3.92106444656944,-29.5,77.2711193298039,66.3993298436924,319.187730000762
26.5,3.92088366133969,-29.5,77.2571023938386,66.3875442637634,319.191519141241
27,3.92070436240235,-29.5,77.2430854578733,66.3757586838344,319.195318191643
27.5,3.92052582189866,-29.5,77.229068521908,66.3639731039055,319.199122298935
28,3.92034728139496,-29.5,77.2150515859427,66.3521875239765,319.202926406227
28.5,3.92016875743725,-29.5,77.2010346499774,66.3404019440475,319.206730623951
29,3.91999230214978,-29.5,77.1870177140121,66.3286163641185,319.21054864853
29.5,3.91981584686232,-29.5,77.1730007780468,66.3168307841895,319.214366673109
30,3.91963939157486,-29.5,77.1589838420815,66.3050452042605,319.218184697688
30.5,3.91946362737761,-29.5,77.1449669061162,66.2932596243315,319.222007309521
31,3.91928912573859,-29.5,77.1309499701508,66.2814740444025,319.225838301843
31.5,3.91911462409957,-29.5,77.1169330341855,66.2696884644735,319.229669294166
32,3.91894012246055,-29.5,77.1029160982202,66.2579028845445,319.233500286489
32.5,3.91876690985317,-29.5,77.0888991622549,66.2461173046155,319.237339735759
33,3.91859425086757,-29.5,77.0748822262896,66.2343317246865,319.241182817173
33.5,3.91842159188197,-29.5,77.0608652903243,66.2225461447576,319.245025898588
34,3.91824901221438,-29.5,77.046848354359,66.2107605648286,319.248869491094
34.5,3.91807810184874,-29.5,77.0328314183937,66.1989749848996,319.252723839857
35,3.9179071914831,-29.5,77.0188144824284,66.1871894049706,319.25657818862
35.5,3.91773628111746,-29.5,77.0047975464631,66.1754038250416,319.260432537383
36,3.91756633659321,-29.5,76.9907806104978,66.1636182451126,319.264292915074
36.5,3.91739789534402,-29.5,76.9767636745325,66.1518326651836,319.268162676436
37,3.91722945409482,-29.5,76.9627467385671,66.1400470852547,319.272032437799
37.5,3.91706101284562,-29.5,76.9487298026018,66.1282615053257,319.275902199161
38,3.91689257159642,-29.5,76.9347128666365,66.1164759253967,319.279771960523
38.5,3.91672413034722,-29.5,76.9206959306712,66.1046903454677,319.283641721886
39,3.91655568909802,-29.5,76.9066789947059,66.0929047655387,319.287511483248
39.5,3.916387502822,-29.5,76.8926620587406,66.0811191856097,319.291382753301
40,3.91622214148745,-29.5,76.8786451227753,66.0693336056807,319.295270738695
40.5,3.91605678015289,-29.5,76.86462818681,66.0575480257517,319.299158724088
41,3.91589141881833,-29.5,76.8506112508447,66.0457624458227,319.303046709481
41.5,3.91572605748377,-29.5,76.8365943148794,66.0339768658937,319.306934694875
42,3.91556069614921,-29.5,76.822577378914,66.0221912859647,319.310822680268
42.5,3.91539533481465,-29.5,76.8085604429487,66.0104057060357,319.314710665662
43,3.9152299734801,-29.5,76.7945435069834,65.9986201261067,319.318598651055
43.5,3.91506683985205,-29.5,76.7805265710181,65.9868345461777,319.322498760506
44,3.91490435519437,-29.5,76.7665096350528,65.9750489662487,319.326402401909
44.5,3.91474187053669,-29.5,76.7524926990875,65.9632633863198,319.330306043313
45,3.914579385879,-29.5,76.7384757631222,65.9514778063908,319.334209684716
45.5,3.91441690122132,-29.5,76.7244588271569,65.9396922264618,319.33811332612
46,3.91425441656364,-29.5,76.7104418911916,65.9279066465328,319.342016967524
46.5,3.91409193190595,-29.5,76.6964249552262,65.9161210666038,319.345920608927
47,3.91393024923872,-29.5,76.6824080192609,65.9043354866748,319.349828286562
47.5,3.91376948551773,-29.5,76.6683910832957,65.8925499067458,319.353740589041
48,3.91360935983075,-29.5,76.6543741473304,65.8807643268168,319.35765587341
48.5,3.91344959471686,-29.5,76.640357211365,65.8689787468878,319.361572842938
49,3.91328982960298,-29.5,76.6263402753997,65.8571931669588,319.365489812467
49.5,3.91313006448909,-29.5,76.6123233394344,65.8454075870299,319.369406781996
50,3.96806288376028,10.0740876674241,76.5983189391423,65.8336325472202,319.373323938585
50.5,3.9749136582942,14.75,76.6053227023135,65.8395213813322,319.371319624563
51,3.97521825993167,14.75,76.6123311702962,65.8454141712967,319.369594066918
51.5,3.97550049543291,14.75,76.6193396382788,65.8513069612612,319.367871622574
52,3.97576555960274,14.75,76.6263481062615,65.8571997512257,319.366154366296
52.5,3.9760166351049,14.75,76.6333565742441,65.8630925411902,319.364443685939
53,3.97625692287488,14.75,76.6403650422268,65.8689853311547,319.362739846495
53.5,3.97648705168295,14.75,76.6473735102094,65.8748781211192,319.361044043605
54,3.97670944158441,14.75,76.6543819781921,65.8807709110837,319.359355694411
54.5,3.97692370868678,14.75,76.6613904461747,65.8866637010482,319.357676563855
55,3.9771318059724,14.75,76.6683989141574,65.8925564910127,319.356005549834
55.5,3.97733403727413,14.75,76.6754073821401,65.8984492809772,319.354343249098
56,3.97753006624773,14.75,76.6824158501227,65.9043420709417,319.352691366735
56.5,3.97772293310801,14.75,76.6894243181054,65.9102348609062,319.35104519062
57,3.97790973166252,14.75,76.696432786088,65.9161276508707,319.349411310484
57.5,3.97809333660361,14.75,76.7034412540707,65.9220204408352,319.347784722414
58,3.97827383826026,14.75,76.7104497220533,65.9279132307996,319.346165423201
58.5,3.978449950136,14.75,76.717458190036,65.9338060207641,319.344557411606
59,3.97862302679069,14.75,76.7244666580186,65.9396988107286,319.342958026614
59.5,3.97879404352228,14.75,76.7314751260013,65.9455916006931,319.34136462954
60,3.97896162391073,14.75,76.7384835939839,65.9514843906576,319.339781967577
60.5,3.93794968868631,-14.75,76.7314835361629,65.9455986720411,319.34078271165
61,3.93779755860032,-14.75,76.7244750681802,65.9397058820766,319.341625841657
61.5,3.93765930175693,-14.75,76.7174666001976,65.9338130921121,319.342477965547
62,3.93753135706948,-14.75,76.7104581322149,65.9279203021476,319.343337921685
62.5,3.93741137583769,-14.75,76.7034496642323,65.9220275121831,319.344204708772
63,3.93729752141341,-14.75,76.6964411962496,65.9161347222186,319.345077187791
63.5,3.93718914770669,-14.75,76.6894327282669,65.9102419322541,319.345955129344
64,3.93708515463714,-14.75,76.6824242602843,65.9043491422896,319.346837734811
64.5,3.93698556091861,-14.75,76.6754157923016,65.8984563523251,319.347725268259
65,3.93688840493024,-14.75,76.668407324319,65.8925635623606,319.348615634889
65.5,3.93679442174507,-14.75,76.6613988563363,65.8866707723962,319.349509758524
66,3.9367033550971,-14.75,76.6543903883537,65.8807779824317,319.350407455763
66.5,3.93661431076924,-14.75,76.647381920371,65.8748851924671,319.351307706784
67,3.93652713541762,-14.75,76.6403734523883,65.8689924025027,319.352210351452
67.5,3.93644179796559,-14.75,76.6333649844057,65.8630996125382,319.353115380426
68,3.93635851713828,-14.75,76.6263565164231,65.8572068225737,319.354023083665
68.5,3.93627657025785,-14.75,76.6193480484404,65.8513140326092,319.354932509182
69,3.9361958729751,-14.75,76.6123395804577,65.8454212426447,319.355843541659
69.5,3.93611634352853,-14.75,76.6053311124751,65.8395284526802,319.356756069474
70,3.93603830392083,-14.75,76.5983226444924,65.8336356627157,319.35767049154
70.5,3.93596122248674,-14.75,76.5913141765098,65.8277428727512,319.358586119766
71,3.93588524272638,-14.75,76.5843057085271,65.8218500827867,319.35950310699
71.5,3.93581033717662,-14.75,76.5772972405445,65.8159572928222,319.3604214039
72,3.93573543162686,-14.75,76.5702887725618,65.8100645028577,319.361339700809
72.5,3.93566208434635,-14.75,76.5632803045792,65.8041717128932,319.362259764085
73,3.93558919113342,-14.75,76.5562718365965,65.7982789229287,319.363180342066
73.5,3.93551655399381,-14.75,76.5492633686139,65.7923861329642,319.364101175048
74,3.93544532897065,-14.75,76.5422549006312,65.7864933429997,319.36502341423
74.5,3.93537410394749,-14.75,76.5352464326485,65.7806005530352,319.365945653413
75,3.93530362423171,-14.75,76.5282379646659,65.7747077630707,319.366868512631
75.5,3.93523379845435,-14.75,76.5212294966832,65.7688149731062,319.367791915874
76,3.93516397267699,-14.75,76.5142210287006,65.7629221831417,319.368715319117
76.5,3.93509523002507,-14.75,76.5072125607179,65.7570293931772,319.369639425342
77,3.93502659215226,-14.75,76.5002040927353,65.7511366032127,319.370563599571
77.5,3.93495825056031,-14.75,76.4931956247526,65.7452438132482,319.371487899344
78,3.93489063104248,-14.75,76.48618715677,65.7393510232837,319.372412505082
78.5,3.93482301152465,-14.75,76.4791786887873,65.7334582333193,319.373337110821
79,3.93475598131211,-14.75,76.4721702208047,65.7275654433548,319.374261804242
79.5,3.93468924124111,-14.75,76.465161752822,65.7216726533903,319.375186540833
80,3.93462253884688,-14.75,76.4581532848394,65.7157798634258,319.376111271917
80.5,3.93455656406678,-14.75,76.4511448168567,65.7098870734613,319.377035896626
81,3.93449058928667,-14.75,76.444136348874,65.7039942834968,319.377960521335
81.5,3.9344249023,-14.75,76.4371278808914,65.6981014935323,319.37888501289
82,3.93435959934174,-14.75,76.4301194129087,65.6922087035678,319.379809326766
82.5,3.93429429638347,-14.75,76.4231109449261,65.6863159136033,319.380733640641
83,3.9342294737958,-14.75,76.4161024769434,65.6804231236388,319.381657547689
83.5,3.93416476570659,-14.75,76.4090940089608,65.6745303336743,319.382581357767
84,3.93410020132465,-14.75,76.4020855409781,65.6686375437098,319.383504975628
84.5,3.93403626308659,-14.75,76.3950770729954,65.6627447537453,319.384427755978
85,3.93397232484853,-14.75,76.3880686050128,65.6568519637808,319.385350536329
85.5,3.93390838661048,-14.75,76.3810601370301,65.6509591738163,319.38627331668
86,3.93384444837242,-14.75,76.3740516690475,65.6450663838518,319.38719609703
86.5,3.93378051013436,-14.75,76.3670432010648,65.6391735938873,319.388118877381
87,3.93371739218118,-14.75,76.3600347330822,65.6332808039228,319.389039915982
87.5,3.933654322006,-14.75,76.3530262650995,65.6273880139583,319.389960853134
88,3.93359125183082,-14.75,76.3460177971169,65.6214952239938,319.390881790286
88.5,3.93352818165564,-14.75,76.3390093291342,65.6156024340293,319.391802727438
89,3.93346511148046,-14.75,76.3320008611516,65.6097096440648,319.39272366459
89.5,3.93340255177839,-14.75,76.3249923931689,65.6038168541003,319.393643021025
90,3.93334020747881,-14.75,76.3179839251862,65.5979240641358,319.394561710451
90.5,3.93327786317924,-14.75,76.3109754572036,65.5920312741713,319.395480399877
91,3.93321551887966,-14.75,76.303966989221,65.5861384842069,319.396399089304
91.5,3.93315317458008,-14.75,76.2969585212383,65.5802456942424,319.39731777873
92,3.93309111845141,-14.75,76.2899500532557,65.5743529042779,319.398235295099
92.5,3.93302939851626,-14.75,76.282941585273,65.5684601143134,319.399151442926
93,3.93296767858111,-14.75,76.2759331172903,65.5625673243489,319.400067590753
93.5,3.93290595864596,-14.75,76.2689246493077,65.5566745343844,319.40098373858
94,3.93284423871081,-14.75,76.261916181325,65.5507817444199,319.401899886407
94.5,3.93278264000898,-14.75,76.2549077133424,65.5448889544554,319.402815428684
95,3.93272147155027,-14.75,76.2478992453597,65.5389961644909,319.403728821934
95.5,3.93266030309156,-14.75,76.2408907773771,65.5331033745264,319.404642215184
96,3.93259913463285,-14.75,76.2338823093944,65.5272105845619,319.405555608433
96.5,3.93253796617413,-14.75,76.2268738414118,65.5213177945974,319.406469001683
97,3.93247679771542,-14.75,76.2198653734291,65.5154250046329,319.407382394933
97.5,3.93241611612582,-14.75,76.2128569054465,65.5095322146684,319.408292900786
98,3.93235544542446,-14.75,76.2058484374638,65.5036394247039,319.409203342067
98.5,3.93229477472311,-14.75,76.1988399694812,65.4977466347394,319.410113783348
99,3.93223410402175,-14.75,76.1918315014985,65.4918538447749,319.411024224628
99.5,3.93217343332039,-14.75,76.1848230335159,65.4859610548104,319.411934665909
100,3.93211309901189,-14.75,76.1778145655332,65.480068264846,319.412842803927
100.5,3.93205288510743,-14.75,76.1708060975505,65.4741754748815,319.413750117546
101,3.93199267120296,-14.75,76.1637976295679,65.468282684917,319.414657431165
101.5,3.93193245729849,-14.75,76.1567891615852,65.4623898949525,319.415564744784
102,3.93187224339403,-14.75,76.1497806936026,65.456497104988,319.416472058404
102.5,3.93181223975324,-14.75,76.1427722256199,65.4506043150235,319.417377761127
103,3.93175245087463,-14.75,76.1357637576372,65.444711525059,319.418281818491
103.5,3.93169266199601,-14.75,76.1287552896546,65.4388187350945,319.419185875855
104,3.93163287311739,-14.75,76.1217468216719,65.43292594513,319.420089933219
104.5,3.93157308423877,-14.75,76.1147383536893,65.4270331551655,319.420993990583
105,3.93151339661029,-14.75,76.1077298857066,65.421140365201,319.421897193574
105.5,3.931454007931,-14.75,76.100721417724,65.4152475752365,319.422797873959
106,3.9313946192517,-14.75,76.0937129497413,65.409354785272,319.423698554343
106.5,3.93133523057241,-14.75,76.0867044817587,65.4034619953075,319.424599234728
107,3.93127584189311,-14.75,76.079696013776,65.397569205343,319.425499915113
107.5,3.93121645750889,-14.75,76.0726875457934,65.3916764153785,319.426400556348
108,3.93115744924171,-14.75,76.0656790778107,65.385783625414,319.427297769329
108.5,3.93109844097452,-14.75,76.0586706098281,65.3798908354495,319.42819498231
109,3.93103943270734,-14.75,76.0516621418454,65.373998045485,319.429092195291
109.5,3.93098042444015,-14.75,76.0446536738627,65.3681052555205,319.429989408272
110,3.93092141617297,-14.75,76.0376452058801,65.362212465556,319.430886621253
110.5,3.93086282308459,-14.75,76.0306367378974,65.3563196755915,319.431779666509
111,3.9308043543036,-14.75,76.0236282699148,65.350426885627,319.432671463919
111.5,3.93074588552261,-14.75,76.0166198019321,65.3445340956625,319.433563261329
112,3.93068741674162,-14.75,76.0096113339495,65.338641305698,319.43445505874
112.5,3.93062894796063,-14.75,76.0026028659668,65.3327485157336,319.43534685615
113,3.93057047917965,-14.75,75.9955943979841,65.3268557257691,319.43623865356
113.5,3.93051201039866,-14.75,75.9885859300015,65.3209629358046,319.43713045097
114,3.93045354161767,-14.75,75.9815774620188,65.3150701458401,319.438022248381
114.5,3.93039507283668,-14.75,75.9745689940362,65.3091773558756,319.438914045791
115,3.93033660405569,-14.75,75.9675605260535,65.3032845659111,319.439805843201
115.5,3.93027832905199,-14.75,75.9605520580709,65.2973917759466,319.440695507411
116,3.93022053742451,-14.75,75.9535435900882,65.2914989859821,319.441579850365
116.5,3.93016274579703,-14.75,75.9465351221056,65.2856061960176,319.44246419332
117,3.93010495416955,-14.75,75.9395266541229,65.2797134060531,319.443348536274
117.5,3.93004716254207,-14.75,75.9325181861403,65.2738206160886,319.444232879228
118,3.92998937091459,-14.75,75.9255097181576,65.2679278261241,319.445117222183
118.5,3.92993157928711,-14.75,75.918501250175,65.2620350361596,319.446001565137
119,3.92987378765963,-14.75,75.9114927821923,65.2561422461951,319.446885908092
119.5,3.92981599603215,-14.75,75.9044843142097,65.2502494562306,319.447770251046
120,3.92975820440467,-14.75,75.897475846227,65.2443566662661,319.448654594
120.5,3.92970041277719,-14.75,75.8904673782443,65.2384638763016,319.449538936955
121,3.92964313142563,-14.75,75.8834589102617,65.2325710863371,319.450417076573
121.5,3.92958597546029,-14.75,75.876450442279,65.2266782963726,319.451293691893
122,3.92952881949494,-14.75,75.8694419742964,65.2207855064081,319.452170307213
122.5,3.92947166352959,-14.75,75.8624335063137,65.2148927164436,319.453046922533
123,3.92941450756424,-14.75,75.855425038331,65.2089999264791,319.453923537853
123.5,3.92935735159889,-14.75,75.8484165703484,65.2031071365146,319.454800153173
124,3.92930019563354,-14.75,75.8414081023657,65.1972143465501,319.455676768493
124.5,3.92924303966819,-14.75,75.8343996343831,65.1913215565856,319.456553383813
125,3.92918588370284,-14.75,75.8273911664004,65.1854287666211,319.457429999133
125.5,3.92912872773749,-14.75,75.8203826984178,65.1795359766566,319.458306614454
126,3.92907176384357,-14.75,75.8133742304351,65.1736431866921,319.459180680011
126.5,3.92901520936138,-14.75,75.8063657624524,65.1677503967277,319.460049310595
127,3.92895865487919,-14.75,75.7993572944698,65.1618576067631,319.46091794118
