time,voltage,curr_density,SOC,SOC_est,temp
0,3.90709945406968,-29.5,74,63.64894,321
0.5,3.90675724458824,-29.5,73.9859830640347,63.637154420071,321.00394268141
1,3.90644338406132,-29.5,73.9719661280694,63.625368840142,321.007724090277
1.5,3.90614680067507,-29.5,73.9579491921041,63.613583260213,321.011532274644
2,3.90586264292059,-29.5,73.9439322561388,63.601797680284,321.015362866646
2.5,3.90558881412751,-29.5,73.9299153201735,63.5900121003551,321.019214282955
3,3.90532356615274,-29.5,73.9158983842081,63.578226520426,321.023084692841
3.5,3.90506611992081,-29.5,73.9018814482428,63.5664409404971,321.026973892416
4,3.9048145061612,-29.5,73.8878645122775,63.554655360568,321.030878111298
4.5,3.90456849776663,-29.5,73.8738475763122,63.5428697806391,321.03479747206
5,3.90432748120339,-29.5,73.8598306403469,63.5310842007101,321.038731019614
5.5,3.90409095534492,-29.5,73.8458137043816,63.5192986207811,321.042677930024
6,3.90385850302011,-29.5,73.8317967684163,63.5075130408521,321.046637453008
6.5,3.90362976864431,-29.5,73.817779832451,63.4957274609231,321.050608889453
7,3.90340444454044,-29.5,73.8037628964857,63.4839418809941,321.054591616439
7.5,3.903182263307,-29.5,73.7897459605204,63.4721563010651,321.058585072633
8,3.90296299165877,-29.5,73.775729024555,63.4603707211361,321.062588730997
8.5,3.9027471096167,-29.5,73.7617120885897,63.4485851412071,321.066604646607
9,3.90253297837626,-29.5,73.7476951526244,63.4367995612781,321.070626964223
9.5,3.90232125654378,-29.5,73.7336782166591,63.4250139813492,321.074658388748
10,3.90211178115161,-29.5,73.7196612806938,63.4132284014202,321.078698304208
10.5,3.90190428891006,-29.5,73.7056443447285,63.4014428214912,321.082745991311
11,3.90169891675143,-29.5,73.6916274087632,63.3896572415622,321.086801986672
11.5,3.90149518450888,-29.5,73.6776104727979,63.3778716616332,321.090864612789
12,3.9012934636934,-29.5,73.6635935368326,63.3660860817042,321.09493537181
12.5,3.90109310327428,-29.5,73.6495766008673,63.3543005017752,321.099011774487
13,3.90089466100016,-29.5,73.635559664902,63.3425149218462,321.10309613466
13.5,3.90069734800786,-29.5,73.6215427289366,63.3307293419172,321.107185281512
14,3.90050187165691,-29.5,73.6075257929713,63.3189437619882,321.11128221332
14.5,3.90030733075617,-29.5,73.593508857006,63.3071581820592,321.115383174244
15,3.90011455361148,-29.5,73.5794919210407,63.2953726021303,321.119491731912
15.5,3.89992254821206,-29.5,73.5654749850754,63.2835870222013,321.123603656969
16,3.89973224161961,-29.5,73.5514580491101,63.2718014422723,321.127722994507
16.5,3.89954256768034,-29.5,73.5374411131448,63.2600158623433,321.131845122205
17,3.89935453526165,-29.5,73.5234241771795,63.2482302824143,321.135974489423
17.5,3.89916701637214,-29.5,73.5094072412142,63.2364447024853,321.140106137457
18,3.89898108855498,-29.5,73.4953903052489,63.2246591225563,321.144244852165
18.5,3.89879576318567,-29.5,73.4813733692836,63.2128735426273,321.1483862567
19,3.898612706687,-29.5,73.4673564333183,63.2010879626983,321.15253779136
19.5,3.89842965018833,-29.5,73.4533394973529,63.1893023827693,321.15668932602
20,3.89824659368966,-29.5,73.4393225613876,63.1775168028403,321.16084086068
20.5,3.89806402299322,-29.5,73.4253056254223,63.1657312229114,321.164994561751
21,3.89788440115384,-29.5,73.411288689457,63.1539456429824,321.169161413104
21.5,3.89770477931446,-29.5,73.3972717534917,63.1421600630534,321.173328264458
22,3.89752515747508,-29.5,73.3832548175264,63.1303744831244,321.177495115811
22.5,3.89734575870543,-29.5,73.3692378815611,63.1185889031954,321.181662952433
23,3.89716918983114,-29.5,73.3552209455958,63.1068033232664,321.185843288315
23.5,3.89699262095686,-29.5,73.3412040096304,63.0950177433374,321.190023624196
24,3.89681605208257,-29.5,73.3271870736651,63.0832321634084,321.194203960078
24.5,3.89663949612582,-29.5,73.3131701376998,63.0714465834794,321.198384351739
25,3.89646568034954,-29.5,73.2991532017345,63.0596610035504,321.202576575865
25.5,3.89629186457326,-29.5,73.2851362657692,63.0478754236214,321.206768799991
26,3.89611804879698,-29.5,73.2711193298039,63.0360898436925,321.210961024118
26.5,3.8959442330207,-29.5,73.2571023938387,63.0243042637635,321.215153248244
27,3.89577277214716,-29.5,73.2430854578733,63.0125186838345,321.219355288025
27.5,3.89560147143971,-29.5,73.229068521908,63.0007331039055,321.223557995407
28,3.89543017073225,-29.5,73.2150515859427,62.9889475239765,321.227760702788
28.5,3.8952588700248,-29.5,73.2010346499774,62.9771619440475,321.23196341017
29,3.89508958582709,-29.5,73.1870177140121,62.9653763641185,321.236174143467
29.5,3.89492060844059,-29.5,73.1730007780468,62.9535907841895,321.240386097905
30,3.89475163105408,-29.5,73.1589838420815,62.9418052042605,321.244598052342
30.5,3.89458265366758,-29.5,73.1449669061162,62.9300196243315,321.248810006779
31,3.89441540806388,-29.5,73.1309499701509,62.9182340444025,321.253028486385
31.5,3.89424859657483,-29.5,73.1169330341856,62.9064484644736,321.257248601687
32,3.89408178508578,-29.5,73.1029160982202,62.8946628845446,321.261468716988
32.5,3.89391497359673,-29.5,73.0888991622549,62.8828773046156,321.26568883229
33,3.893749650489,-29.5,73.0748822262896,62.8710917246866,321.269914171363
33.5,3.89358487455005,-29.5,73.0608652903243,62.8593061447576,321.274141430833
34,3.8934200986111,-29.5,73.046848354359,62.8475205648286,321.278368690303
34.5,3.89325532267216,-29.5,73.0328314183937,62.8357349848996,321.282595949774
35,3.89309182378988,-29.5,73.0188144824284,62.8239494049706,321.286827321555
35.5,3.89292897455572,-29.5,73.0047975464631,62.8121638250416,321.291060785299
36,3.89276612532156,-29.5,72.9907806104978,62.8003782451126,321.295294249043
36.5,3.8926032760874,-29.5,72.9767636745325,62.7885926651836,321.299527712787
37,3.89244151758003,-29.5,72.9627467385672,62.7768070852547,321.303764353502
37.5,3.89228050321325,-29.5,72.9487298026018,62.7650215053256,321.308003161681
38,3.89211948884647,-29.5,72.9347128666365,62.7532359253967,321.312241969861
38.5,3.89195847447969,-29.5,72.9206959306712,62.7414503454677,321.316480778041
39,3.89179838400585,-29.5,72.9066789947059,62.7296647655387,321.320721958444
39.5,3.89163912585617,-29.5,72.8926620587406,62.7178791856097,321.324965275954
40,3.89147986770649,-29.5,72.8786451227753,62.7060936056807,321.329208593464
40.5,3.89132060955681,-29.5,72.86462818681,62.6943080257517,321.333451910974
41,3.89116249692586,-29.5,72.8506112508447,62.6825224458227,321.337697646461
41.5,3.89100574157382,-29.5,72.8365943148794,62.6707368658937,321.341946246911
42,3.89084898622178,-29.5,72.822577378914,62.6589512859647,321.346194847361
42.5,3.89069223086974,-29.5,72.8085604429487,62.6471657060357,321.350443447811
43,3.8905354755177,-29.5,72.7945435069834,62.6353801261067,321.354692048261
43.5,3.89037872016566,-29.5,72.7805265710181,62.6235945461777,321.358940648711
44,3.89022196481361,-29.5,72.7665096350528,62.6118089662488,321.363189249161
44.5,3.89006520946157,-29.5,72.7524926990875,62.6000233863198,321.367437849611
45,3.88990946584894,-29.5,72.7384757631222,62.5882378063908,321.371687919089
45.5,3.88975586286204,-29.5,72.7244588271569,62.5764522264618,321.375941096721
46,3.88960225987513,-29.5,72.7104418911916,62.5646666465328,321.380194274353
46.5,3.88944865688822,-29.5,72.6964249552263,62.5528810666038,321.384447451985
47,3.88929505390132,-29.5,72.682408019261,62.5410954866748,321.388700629617
47.5,3.88914145091441,-29.5,72.6683910832957,62.5293099067458,321.392953807249
48,3.8889878479275,-29.5,72.6543741473304,62.5175243268168,321.397206984881
48.5,3.8888342449406,-29.5,72.6403572113651,62.5057387468879,321.401460162512
49,3.88868098833993,-29.5,72.6263402753997,62.4939531669589,321.405713623786
49.5,3.88852926587388,-29.5,72.6123233394344,62.4821675870299,321.409968341299
50,3.91930145122762,-6.8262779990029,72.5983135857521,62.4703880460362,321.414220907929
50.5,3.94906552635952,14.75,72.605308453578,62.4762694008529,321.411825512346
51,3.94936584578458,14.75,72.6123169215606,62.4821621908174,321.409735326179
51.5,3.94964361033309,14.75,72.6193253895433,62.4880549807819,321.407648835148
52,3.94990418362835,14.75,72.6263338575259,62.4939477707464,321.405568179404
52.5,3.95015073104266,14.75,72.6333423255086,62.4998405607109,321.403494752493
53,3.95038656078184,14.75,72.6403507934913,62.5057333506754,321.401428745071
53.5,3.95061216251037,14.75,72.6473592614739,62.5116261406399,321.399371676558
54,3.95083004495711,14.75,72.6543677294566,62.5175189306044,321.397322731481
54.5,3.95103991665136,14.75,72.6613761974392,62.5234117205688,321.395283688047
55,3.95124355876229,14.75,72.6683846654219,62.5293045105334,321.393253555466
55.5,3.95144144555508,14.75,72.6753931334045,62.5351973004979,321.391232762419
56,3.95163311844175,14.75,72.6824016013872,62.5410900904624,321.389223420561
56.5,3.95182152728207,14.75,72.6894100693698,62.5469828804269,321.387220578665
57,3.95200406872774,14.75,72.6964185373525,62.5528756703913,321.385230730006
57.5,3.95218343570344,14.75,72.7034270053351,62.5587684603558,321.383248729908
58,3.95235971820054,14.75,72.7104354733178,62.5646612503203,321.381274578532
58.5,3.95253149023491,14.75,72.7174439413004,62.5705540402848,321.379313110065
59,3.95270040236927,14.75,72.7244524092831,62.5764468302493,321.37736056991
59.5,3.95286721486978,14.75,72.7314608772658,62.5823396202138,321.375414715773
60,3.92659564800267,-4.74944571317152,72.7384637861721,62.5882277360514,321.373482071585
60.5,3.91286532951551,-14.75,72.7314617231191,62.5823403314158,321.374644672695
61,3.91271695732129,-14.75,72.7244532551364,62.5764475414513,321.375629493952
61.5,3.91258261633114,-14.75,72.7174447871538,62.5705547514867,321.376622839358
62,3.91245867961511,-14.75,72.7104363191711,62.5646619615222,321.377623518523
62.5,3.91234275489798,-14.75,72.7034278511885,62.5587691715578,321.378630464021
63,3.91223299002281,-14.75,72.6964193832058,62.5528763815933,321.379642615637
63.5,3.91212872552044,-14.75,72.6894109152232,62.5469835916288,321.380659714026
64,3.91202885248964,-14.75,72.6824024472405,62.5410908016643,321.381680936846
64.5,3.91193338614138,-14.75,72.6753939792578,62.5351980116998,321.382706434124
65,3.91184035695498,-14.75,72.6683855112752,62.5293052217353,321.383734360822
65.5,3.9117505067893,-14.75,72.6613770432925,62.5234124317708,321.38476552065
66,3.91166356318333,-14.75,72.6543685753099,62.5175196418063,321.38579967897
66.5,3.91157863682462,-14.75,72.6473601073272,62.5116268518418,321.386835889622
67,3.9114955736268,-14.75,72.6403516393446,62.5057340618773,321.387873977533
67.5,3.91141434941125,-14.75,72.6333431713619,62.4998412719128,321.388913895906
68,3.91133516329554,-14.75,72.6263347033793,62.4939484819483,321.389955811002
68.5,3.91125730263299,-14.75,72.6193262353966,62.4880556919838,321.390998987661
69,3.91118068276496,-14.75,72.6123177674139,62.4821629020193,321.392043302562
69.5,3.91110522160016,-14.75,72.6053092994313,62.4762701120548,321.393088631993
70,3.91103124476946,-14.75,72.5983008314486,62.4703773220903,321.394135157988
70.5,3.9109582075217,-14.75,72.591292363466,62.4644845321258,321.395182381316
71,3.91088625510545,-14.75,72.5842838954833,62.4585917421613,321.396230335352
71.5,3.91081537497399,-14.75,72.5772754275007,62.4526989521968,321.397278968049
72,3.91074449484252,-14.75,72.570266959518,62.4468061622323,321.398327600747
72.5,3.91067513333499,-14.75,72.5632584915354,62.4409133722678,321.399376943092
73,3.91060623459304,-14.75,72.5562500235527,62.4350205823033,321.400426501685
73.5,3.91053757226098,-14.75,72.54924155557,62.4291277923389,321.401476102737
74,3.9104703105501,-14.75,72.5422330875874,62.4232350023744,321.402525955338
74.5,3.91040304883923,-14.75,72.5352246196047,62.4173422124099,321.403575807939
75,3.91033650199335,-14.75,72.5282161516221,62.4114494224454,321.404625550239
75.5,3.91027060874972,-14.75,72.5212076836394,62.4055566324809,321.40567519169
76,3.91020471550608,-14.75,72.5141992156568,62.3996638425164,321.406724833142
76.5,3.91013986483691,-14.75,72.5071907476741,62.3937710525519,321.407773946308
77,3.91007512955439,-14.75,72.5001822796915,62.3878782625874,321.408823001006
77.5,3.91001066968003,-14.75,72.4931738117088,62.3819854726229,321.409871804415
78,3.90994692392286,-14.75,72.4861653437262,62.3760926826584,321.410919956244
78.5,3.9098831781657,-14.75,72.4791568757435,62.3701998926939,321.411968108072
79,3.90981999150346,-14.75,72.4721484077609,62.3643071027294,321.413015479226
79.5,3.90975709764415,-14.75,72.4651399397782,62.3584143127649,321.414062441533
80,3.90969422911033,-14.75,72.4581314717955,62.3525215228004,321.415109354761
80.5,3.90963207439456,-14.75,72.4511230038129,62.3466287328359,321.416154884673
81,3.90956991967879,-14.75,72.4441145358302,62.3407359428714,321.417200414584
81.5,3.90950803173968,-14.75,72.4371060678476,62.3348431529069,321.418245275733
82,3.90944652417381,-14.75,72.4300975998649,62.3289503629424,321.419289183353
82.5,3.90938501660794,-14.75,72.4230891318823,62.3230575729779,321.420333090973
83,3.90932396078835,-14.75,72.4160806638996,62.3171647830134,321.421375597912
83.5,3.90926302490627,-14.75,72.409072195917,62.3112719930489,321.422417732974
84,3.90920221313142,-14.75,72.4020637279343,62.3053792030845,321.423459372279
84.5,3.90914201522311,-14.75,72.3950552599517,62.29948641312,321.424498559449
85,3.90908181731481,-14.75,72.388046791969,62.2935936231555,321.425537746618
85.5,3.9090216194065,-14.75,72.3810383239864,62.287700833191,321.426576933788
86,3.9089614214982,-14.75,72.3740298560037,62.2818080432265,321.427616120958
86.5,3.90890122358989,-14.75,72.367021388021,62.275915253262,321.428655308127
87,3.90884179274106,-14.75,72.3600129200384,62.2700224632975,321.429690520387
87.5,3.9087824248824,-14.75,72.3530044520557,62.264129673333,321.430725406231
88,3.90872305702374,-14.75,72.3459959840731,62.2582368833685,321.431760292075
88.5,3.90866368916509,-14.75,72.3389875160904,62.252344093404,321.432795177919
89,3.90860432130643,-14.75,72.3319790481078,62.2464513034395,321.433830063764
89.5,3.90854542449745,-14.75,72.3249705801251,62.240558513475,321.434861766798
90,3.90848674930536,-14.75,72.3179621121425,62.2346657235105,321.435891972402
90.5,3.90842807411328,-14.75,72.3109536441598,62.228772933546,321.436922178006
91,3.9083693989212,-14.75,72.3039451761772,62.2228801435815,321.43795238361
91.5,3.90831072372912,-14.75,72.2969367081945,62.216987353617,321.438982589214
92,3.90825230805302,-14.75,72.2899282402119,62.2110945636525,321.440010644497
92.5,3.90819422809152,-14.75,72.2829197722292,62.205201773688,321.441035918086
93,3.90813614813003,-14.75,72.2759113042465,62.1993089837235,321.442061191675
93.5,3.90807806816854,-14.75,72.2689028362639,62.193416193759,321.443086465263
94,3.90801998820705,-14.75,72.2618943682812,62.1875234037945,321.444111738852
94.5,3.90796200914367,-14.75,72.2548859002986,62.18163061383,321.445136035572
95,3.90790445487901,-14.75,72.2478774323159,62.1757378238655,321.446156219505
95.5,3.90784690061435,-14.75,72.2408689643333,62.169845033901,321.447176403437
96,3.90778934634969,-14.75,72.2338604963506,62.1639522439366,321.44819658737
96.5,3.90773179208503,-14.75,72.226852028368,62.1580594539721,321.449216771303
97,3.90767423782037,-14.75,72.2198435603853,62.1521666640076,321.450236955235
97.5,3.90761713350173,-14.75,72.2128350924026,62.1462738740431,321.451252199929
98,3.90756005392781,-14.75,72.20582662442,62.1403810840786,321.452267172991
98.5,3.9075029743539,-14.75,72.1988181564373,62.1344882941141,321.453282146052
99,3.90744589477998,-14.75,72.1918096884547,62.1285955041496,321.454297119114
99.5,3.90738881520606,-14.75,72.184801220472,62.1227027141851,321.455312092175
100,3.90733204240363,-14.75,72.1777927524893,62.1168099242206,321.456323304378
100.5,3.90727539870126,-14.75,72.1707842845067,62.1109171342561,321.457332933882
101,3.90721875499888,-14.75,72.163775816524,62.1050243442916,321.458342563386
101.5,3.9071621112965,-14.75,72.1567673485414,62.0991315543271,321.45935219289
102,3.90710546759412,-14.75,72.1497588805587,62.0932387643626,321.460361822393
102.5,3.90704901044314,-14.75,72.1427504125761,62.0873459743981,321.461368943475
103,3.90699277250648,-14.75,72.1357419445934,62.0814531844336,321.46237311694
103.5,3.90693653456982,-14.75,72.1287334766108,62.0755603944691,321.463377290405
104,3.90688029663316,-14.75,72.1217250086281,62.0696676045046,321.464381463869
104.5,3.90682405869649,-14.75,72.1147165406455,62.0637748145401,321.465385637334
105,3.90676790320238,-14.75,72.1077080726628,62.0578820245756,321.466388613951
105.5,3.90671204749046,-14.75,72.1006996046802,62.0519892346111,321.467387238524
106,3.90665619177854,-14.75,72.0936911366975,62.0460964446466,321.468385863097
106.5,3.90660033606661,-14.75,72.0866826687149,62.0402036546821,321.46938448767
107,3.90654448035469,-14.75,72.0796742007322,62.0343108647176,321.470383112243
107.5,3.90648862464277,-14.75,72.0726657327495,62.0284180747531,321.471381736815
108,3.90643312204717,-14.75,72.0656572647669,62.0225252847886,321.472374921751
108.5,3.90637762976157,-14.75,72.0586487967842,62.0166324948242,321.473367947864
109,3.90632213747598,-14.75,72.0516403288016,62.0107397048597,321.474360973978
109.5,3.90626664519039,-14.75,72.0446318608189,62.0048469148952,321.475354000091
110,3.9062111529048,-14.75,72.0376233928363,61.9989541249307,321.476347026205
110.5,3.90615603562469,-14.75,72.0306149248536,61.9930613349662,321.477333833296
111,3.90610105876034,-14.75,72.023606456871,61.9871685450017,321.478318311759
111.5,3.906046081896,-14.75,72.0165979888883,61.9812757550372,321.479302790222
112,3.90599110503165,-14.75,72.0095895209057,61.9753829650727,321.480287268685
112.5,3.90593612816731,-14.75,72.002581052923,61.9694901751082,321.481271747148
113,3.90588115130296,-14.75,71.9955725849404,61.9635973851437,321.482256225611
113.5,3.90582617443861,-14.75,71.9885641169577,61.9577045951792,321.483240704074
114,3.90577119757427,-14.75,71.981555648975,61.9518118052147,321.484225182537
114.5,3.90571622070992,-14.75,71.9745471809924,61.9459190152502,321.485209661
115,3.90566124384558,-14.75,71.9675387130097,61.9400262252857,321.486194139463
115.5,3.90560642183436,-14.75,71.9605302450271,61.9341334353212,321.48717586853
116,3.90555209167219,-14.75,71.9535217770444,61.9282406453567,321.488148864887
116.5,3.90549776151003,-14.75,71.9465133090618,61.9223478553922,321.489121861244
117,3.90544343134786,-14.75,71.9395048410791,61.9164550654277,321.490094857601
117.5,3.9053891011857,-14.75,71.9324963730965,61.9105622754632,321.491067853958
118,3.90533477102353,-14.75,71.9254879051138,61.9046694854987,321.492040850315
118.5,3.90528044086137,-14.75,71.9184794371312,61.8987766955342,321.493013846672
119,3.9052261106992,-14.75,71.9114709691485,61.8928839055697,321.493986843029
119.5,3.90517178053704,-14.75,71.9044625011659,61.8869911156053,321.494959839386
120,3.90511745037487,-14.75,71.8974540331832,61.8810983256408,321.495932835743
120.5,3.90506312021271,-14.75,71.8904455652006,61.8752055356763,321.4969058321
121,3.90500924574943,-14.75,71.8834370972179,61.8693127457118,321.497870086939
121.5,3.9049555221102,-14.75,71.8764286292352,61.8634199557473,321.498831448572
122,3.90490179847097,-14.75,71.8694201612526,61.8575271657828,321.499792810205
122.5,3.90484807483173,-14.75,71.8624116932699,61.8516343758183,321.500754171837
123,3.9047943511925,-14.75,71.8554032252873,61.8457415858538,321.50171553347
123.5,3.90474062755327,-14.75,71.8483947573046,61.8398487958893,321.502676895103
124,3.90468690391403,-14.75,71.841386289322,61.8339560059248,321.503638256736
124.5,3.9046331802748,-14.75,71.8343778213393,61.8280632159603,321.504599618369
125,3.90457945663557,-14.75,71.8273693533567,61.8221704259958,321.505560980001
125.5,3.90452573299633,-14.75,71.820360885374,61.8162776360313,321.506522341634
126,3.9044721602407,-14.75,71.8133524173914,61.8103848460668,321.507480613812
126.5,3.90441900984649,-14.75,71.8063439494087,61.8044920561023,321.508430237821
127,3.90436585945229,-14.75,71.7993354814261,61.7985992661378,321.509379861831
