time,voltage,curr_density,SOC,SOC_est,temp
0,3.78648811813961,-29.5,56,48.51436,266
0.5,3.78601464158768,-29.5,55.9859830640347,48.502574420071,266.005676183715
1,3.78556248467221,-29.5,55.9719661280694,48.490788840142,266.011225755045
1.5,3.78512505566591,-29.5,55.9579491921041,48.479003260213,266.016857002916
2,3.78469854710928,-29.5,55.9439322561388,48.467217680284,266.0225576296
2.5,3.78428105946906,-29.5,55.9299153201734,48.455432100355,266.028322141114
3,3.78387150703371,-29.5,55.9158983842082,48.4436465204261,266.034148138017
3.5,3.78346804098036,-29.5,55.9018814482428,48.4318609404971,266.040024535415
4,3.78307110376553,-29.5,55.8878645122775,48.4200753605681,266.045958074931
4.5,3.78267943427287,-29.5,55.8738475763122,48.4082897806391,266.051939920123
5,3.78229326305665,-29.5,55.8598306403469,48.3965042007101,266.057974218677
5.5,3.78191194613928,-29.5,55.8458137043816,48.3847186207811,266.064056169648
6,3.78153543288037,-29.5,55.8317967684163,48.3729330408521,266.070186894802
6.5,3.78116262352488,-29.5,55.817779832451,48.3611474609231,266.076355876266
7,3.78079364377875,-29.5,55.8037628964857,48.3493618809941,266.082564900496
7.5,3.78043010981728,-29.5,55.7897459605204,48.3375763010651,266.088832195272
8,3.78006982653653,-29.5,55.7757290245551,48.3257907211361,266.095134991679
8.5,3.77971273965123,-29.5,55.7617120885898,48.3140051412072,266.10147291918
9,3.77935988844302,-29.5,55.7476951526244,48.3022195612782,266.107858011763
9.5,3.7790108147668,-29.5,55.7336782166591,48.2904339813492,266.114285875706
10,3.77866460924119,-29.5,55.7196612806938,48.2786484014202,266.120746463548
10.5,3.77832130557625,-29.5,55.7056443447285,48.2668628214912,266.127240315827
11,3.77798240242124,-29.5,55.6916274087632,48.2550772415622,266.133785279924
11.5,3.77764731791851,-29.5,55.6776104727979,48.2432916616332,266.140375136079
12,3.77731486491851,-29.5,55.6635935368326,48.2315060817042,266.146995935644
12.5,3.77698241191851,-29.5,55.6495766008673,48.2197205017752,266.15361673521
13,3.77665629763175,-29.5,55.635559664902,48.2079349218462,266.160313074902
13.5,3.77633181492277,-29.5,55.6215427289367,48.1961493419172,266.167028858541
14,3.7760073572906,-29.5,55.6075257929713,48.1843637619882,266.17374494491
14.5,3.77569027947822,-29.5,55.593508857006,48.1725781820592,266.180550121298
15,3.77537320166584,-29.5,55.5794919210407,48.1607926021302,266.187355297686
15.5,3.77505758433465,-29.5,55.5654749850754,48.1490070222013,266.19417826989
16,3.77474741250859,-29.5,55.5514580491101,48.1372214422723,266.201067595021
16.5,3.77443724068254,-29.5,55.5374411131448,48.1254358623433,266.207956920152
17,3.77412978101507,-29.5,55.5234241771795,48.1136502824143,266.214879479374
17.5,3.77382607325958,-29.5,55.5094072412142,48.1018647024853,266.221848013556
18,3.77352236550408,-29.5,55.4953903052489,48.0900791225563,266.228816547738
18.5,3.77322246162769,-29.5,55.4813733692836,48.0782935426273,266.235831836863
19,3.77292481420497,-29.5,55.4673564333183,48.0665079626983,266.24287486093
19.5,3.77262716678225,-29.5,55.453339497353,48.0547223827693,266.249917884996
20,3.77233428098239,-29.5,55.4393225613876,48.0429368028403,266.25701942056
20.5,3.77204233090071,-29.5,55.4253056254223,48.0311512229113,266.264132454361
21,3.7717506161339,-29.5,55.411288689457,48.0193656429824,266.271248372777
21.5,3.77146403164731,-29.5,55.3972717534917,48.0075800630534,266.27842718088
22,3.77117744716073,-29.5,55.3832548175264,47.9957944831244,266.285605988983
22.5,3.77089213893476,-29.5,55.3692378815611,47.9840089031954,266.292800364636
23,3.77061061997555,-29.5,55.3552209455958,47.9722233232664,266.300040960947
23.5,3.77032910101635,-29.5,55.3412040096305,47.9604377433374,266.307281557257
24,3.77004978557808,-29.5,55.3271870736652,47.9486521634084,266.314548837863
24.5,3.76977305642217,-29.5,55.3131701376999,47.9368665834794,266.321847437947
25,3.76949632726626,-29.5,55.2991532017346,47.9250810035504,266.32914603803
25.5,3.76922262945669,-29.5,55.2851362657692,47.9132954236214,266.336480997363
26,3.76895043730652,-29.5,55.2711193298039,47.9015098436925,266.343834016212
26.5,3.76867824515635,-29.5,55.2571023938386,47.8897242637635,266.35118703506
27,3.76840982348089,-29.5,55.2430854578733,47.8779386838345,266.358584782875
27.5,3.76814193438579,-29.5,55.229068521908,47.8661531039055,266.365988848667
28,3.76787455411945,-29.5,55.2150515859427,47.8543675239765,266.373398830772
28.5,3.76761269909299,-29.5,55.2010346499774,47.8425819440475,266.380873056599
29,3.76735084406653,-29.5,55.1870177140121,47.8307963641185,266.388347282426
29.5,3.76708898904008,-29.5,55.1730007780468,47.8190107841895,266.395821508253
30,3.76682713401362,-29.5,55.1589838420814,47.8072252042605,266.40329573408
30.5,3.76656527898716,-29.5,55.1449669061161,47.7954396243315,266.410769959906
31,3.76630713493989,-29.5,55.1309499701508,47.7836540444025,266.418286115517
31.5,3.76605269425176,-29.5,55.1169330341855,47.7718684644735,266.425844114814
32,3.76579825356363,-29.5,55.1029160982202,47.7600828845445,266.43340211411
32.5,3.7655438128755,-29.5,55.0888991622549,47.7482973046155,266.440960113406
33,3.76528937218737,-29.5,55.0748822262896,47.7365117246866,266.448518112703
33.5,3.76503493149924,-29.5,55.0608652903243,47.7247261447576,266.456076111999
34,3.76478667373726,-29.5,55.046848354359,47.7129405648286,266.46370100755
34.5,3.76453897780123,-29.5,55.0328314183937,47.7011549848996,266.471331981784
35,3.76429128186519,-29.5,55.0188144824284,47.6893694049706,266.478962956019
35.5,3.76404358592916,-29.5,55.0047975464631,47.6775838250416,266.486593930253
36,3.76379588999312,-29.5,54.9907806104978,47.6657982451126,266.494224904487
36.5,3.7635502446425,-29.5,54.9767636745324,47.6540126651836,266.501876910703
37,3.76330870866178,-29.5,54.9627467385671,47.6422270852546,266.509571064976
37.5,3.76306717268106,-29.5,54.9487298026018,47.6304415053256,266.517265219249
38,3.76282563670033,-29.5,54.9347128666365,47.6186559253967,266.524959373522
38.5,3.76258410071961,-29.5,54.9206959306712,47.6068703454677,266.532653527795
39,3.76234256473888,-29.5,54.9066789947059,47.5950847655387,266.540347682068
39.5,3.76210525564132,-29.5,54.8926620587406,47.5832991856097,266.548082530068
40,3.76186936244505,-29.5,54.8786451227753,47.5715136056807,266.555831009459
40.5,3.76163346924878,-29.5,54.86462818681,47.5597280257517,266.563579488851
41,3.76139757605251,-29.5,54.8506112508447,47.5479424458227,266.571327968242
41.5,3.76116168285624,-29.5,54.8365943148793,47.5361568658937,266.579076447633
42,3.76092664653034,-29.5,54.822577378914,47.5243712859647,266.586832582651
42.5,3.76069593814677,-29.5,54.8085604429487,47.5125857060357,266.594627385251
43,3.76046522976319,-29.5,54.7945435069834,47.5008001261067,266.602422187851
43.5,3.76023452137961,-29.5,54.7805265710181,47.4890145461777,266.610216990452
44,3.76000381299604,-29.5,54.7665096350528,47.4772289662487,266.618011793052
44.5,3.75977310461246,-29.5,54.7524926990875,47.4654433863198,266.625806595652
45,3.75954517194736,-29.5,54.7384757631222,47.4536578063908,266.633624101263
45.5,3.75931923732344,-29.5,54.7244588271569,47.4418722264618,266.641457949147
46,3.75909330269951,-29.5,54.7104418911916,47.4300866465328,266.649291797031
46.5,3.75886736807559,-29.5,54.6964249552262,47.4183010666038,266.657125644914
47,3.75864143345167,-29.5,54.6824080192609,47.4065154866748,266.664959492798
47.5,3.75841549882774,-29.5,54.6683910832956,47.3947299067458,266.672793340682
48,3.75819236507419,-29.5,54.6543741473303,47.3829443268168,266.680648375341
48.5,3.7579702036139,-29.5,54.640357211365,47.3711587468878,266.688510301541
49,3.75774868141853,-29.5,54.6263402753997,47.3593731669588,266.696376756715
49.5,3.75752715922316,-29.5,54.6123233394344,47.3475875870298,266.704243211889
50,3.75730673021532,-29.5,54.5983064034691,47.3358020071008,266.712117118344
50.5,3.85396748496485,14.75,54.6053078629838,47.3416889042754,266.709312529185
51,3.85442296647966,14.75,54.6123163309664,47.3475816942399,266.70677649722
51.5,3.85485176393263,14.75,54.6193247989491,47.3534744842044,266.704165607907
52,3.85526146904775,14.75,54.6263332669317,47.3593672741689,266.701499733149
52.5,3.85565622740387,14.75,54.6333417349144,47.3652600641334,266.698791415021
53,3.85603862203804,14.75,54.640350202897,47.3711528540979,266.69604959418
53.5,3.85640977297692,14.75,54.6473586708797,47.3770456440623,266.693279667245
54,3.85677095187583,14.75,54.6543671388624,47.3829384340269,266.690487484306
54.5,3.85712342057881,14.75,54.661375606845,47.3888312239913,266.687678396505
55,3.85746783713985,14.75,54.6683840748276,47.3947240139558,266.684856089953
55.5,3.85780473987999,14.75,54.6753925428103,47.4006168039203,266.682023757537
56,3.85813458547911,14.75,54.682401010793,47.4065095938848,266.679184184091
56.5,3.85845771088645,14.75,54.6894094787756,47.4124023838493,266.676339813746
57,3.85877389353192,14.75,54.6964179467583,47.4182951738138,266.673492841815
57.5,3.8590841495588,14.75,54.7034264147409,47.4241879637783,266.67064561382
58,3.85938779088378,14.75,54.7104348827236,47.4300807537428,266.667800454873
58.5,3.85968723209632,14.75,54.7174433507062,47.4359735437073,266.664957407569
59,3.85998055134926,14.75,54.7244518186889,47.4418663336718,266.66212003248
59.5,3.86027103692942,14.75,54.7314602866715,47.4477591236363,266.65928528289
60,3.80842121278974,-9.75782918205635,54.7384617677656,47.453646038955,266.656461752207
60.5,3.79760803637464,-14.75,54.7314557255687,47.4477552886154,266.658007808298
61,3.79743470925538,-14.75,54.724447257586,47.4418624986509,266.6593831727
61.5,3.79727419789635,-14.75,54.7174387896034,47.4359697086864,266.660792347257
62,3.79712254355808,-14.75,54.7104303216207,47.4300769187219,266.662227668549
62.5,3.79697775998084,-14.75,54.7034218536381,47.4241841287574,266.663685356893
63,3.79683814079466,-14.75,54.6964133856554,47.4182913387929,266.665161137721
63.5,3.79670281716605,-14.75,54.6894049176728,47.4123985488284,266.666652843961
64,3.79657118341321,-14.75,54.6823964496901,47.4065057588639,266.668158946087
64.5,3.79644293819762,-14.75,54.6753879817075,47.4006129688994,266.669678850033
65,3.79631757238461,-14.75,54.6683795137248,47.3947201789349,266.671210956547
65.5,3.79619470693992,-14.75,54.6613710457421,47.3888273889704,266.672753964384
66,3.79607411980746,-14.75,54.6543625777595,47.3829345990059,266.67430715245
66.5,3.79595562593023,-14.75,54.6473541097768,47.3770418090415,266.675869882283
67,3.79583906749895,-14.75,54.6403456417942,47.371149019077,266.67744158462
67.5,3.7957243062979,-14.75,54.6333371738115,47.3652562291125,266.679021748662
68,3.79561121929383,-14.75,54.6263287058289,47.359363439148,266.680609909643
68.5,3.79549971918733,-14.75,54.6193202378462,47.3534706491835,266.682205752582
69,3.79538986097015,-14.75,54.6123117698636,47.347577859219,266.68380962817
69.5,3.79528135146845,-14.75,54.6053033018809,47.3416850692545,266.685420129559
70,3.79517460343727,-14.75,54.5982948338982,47.33579227929,266.687039368658
70.5,3.79506843959535,-14.75,54.5912863659156,47.3298994893255,266.688661509649
71,3.7949634495023,-14.75,54.5842778979329,47.324006699361,266.690289517055
71.5,3.79485981898177,-14.75,54.5772694299503,47.3181139093965,266.691924319627
72,3.79475664001477,-14.75,54.5702609619676,47.312221119432,266.693561389801
72.5,3.79465524459629,-14.75,54.563252493985,47.3063283294675,266.695207416562
73,3.79455384917781,-14.75,54.5562440260023,47.300435539503,266.696853443323
73.5,3.79445432092819,-14.75,54.5492355580197,47.2945427495385,266.698508851448
74,3.79435491031356,-14.75,54.542227090037,47.288649959574,266.700164850615
74.5,3.79425670220675,-14.75,54.5352186220544,47.2827571696095,266.701826856541
75,3.79415906145335,-14.75,54.5282101540717,47.276864379645,266.703491696505
75.5,3.79406208317378,-14.75,54.5212016860891,47.2709715896805,266.705159808868
76,3.79396602675441,-14.75,54.5141932181064,47.265078799716,266.706832474911
76.5,3.79387019373568,-14.75,54.5071847501237,47.2591860097515,266.708506227997
77,3.79377556166296,-14.75,54.5001762821411,47.253293219787,266.710185824754
77.5,3.79368092959024,-14.75,54.4931678141584,47.2474004298225,266.711865421511
78,3.79358744930466,-14.75,54.4861593461758,47.2415076398581,266.713550501364
78.5,3.79349410335699,-14.75,54.4791508781931,47.2356148498936,266.715236220733
79,3.79340183267841,-14.75,54.4721424102105,47.2297220599291,266.716926904129
79.5,3.79331018206393,-14.75,54.4651339422278,47.2238292699646,266.718620450077
80,3.79321853144945,-14.75,54.4581254742452,47.2179364800001,266.720313996025
80.5,3.79312688083497,-14.75,54.4511170062625,47.2120436900356,266.722007541973
81,3.7930354466402,-14.75,54.4441085382798,47.2061509000711,266.723702030323
81.5,3.79294573422076,-14.75,54.4371000702972,47.2002581101066,266.725404016159
82,3.79285602180133,-14.75,54.4300916023145,47.1943653201421,266.727106001996
82.5,3.79276630938189,-14.75,54.4230831343319,47.1884725301776,266.728807987833
83,3.79267659696245,-14.75,54.4160746663492,47.1825797402131,266.730509973669
83.5,3.79258784113448,-14.75,54.4090661983666,47.1766869502486,266.732215784473
84,3.79249975262033,-14.75,54.4020577303839,47.1707941602841,266.733924263555
84.5,3.79241166410617,-14.75,54.3950492624013,47.1649013703196,266.735632742638
85,3.79232357559202,-14.75,54.3880407944186,47.1590085803551,266.73734122172
85.5,3.79223557850249,-14.75,54.3810323264359,47.1531157903906,266.739050027372
86,3.79214886527915,-14.75,54.3740238584533,47.1472230004261,266.740763418999
86.5,3.7920621520558,-14.75,54.3670153904706,47.1413302104616,266.742476810626
87,3.79197543883245,-14.75,54.360006922488,47.1354374204971,266.744190202253
87.5,3.79188872560911,-14.75,54.3529984545053,47.1295446305326,266.74590359388
88,3.79180265324943,-14.75,54.3459899865227,47.1236518405681,266.747618951704
88.5,3.79171711833413,-14.75,54.33898151854,47.1177590506036,266.749335958429
89,3.79163158341884,-14.75,54.3319730505574,47.1118662606391,266.751052965154
89.5,3.79154604850355,-14.75,54.3249645825747,47.1059734706747,266.752769971879
90,3.79146053529251,-14.75,54.3179561145921,47.1000806807101,266.754487032511
90.5,3.79137601970457,-14.75,54.3109476466094,47.0941878907457,266.756206570939
91,3.79129150411662,-14.75,54.3039391786268,47.0882951007812,266.757926109366
91.5,3.79120698852867,-14.75,54.2969307106441,47.0824023108167,266.759645647793
92,3.79112247294073,-14.75,54.2899222426615,47.0765095208522,266.761365186221
92.5,3.7910384005857,-14.75,54.2829137746788,47.0706167308877,266.763085539324
93,3.79095477377297,-14.75,54.2759053066962,47.0647239409232,266.764806711348
93.5,3.79087114696024,-14.75,54.2688968387135,47.0588311509587,266.766527883372
94,3.79078752014751,-14.75,54.2618883707308,47.0529383609942,266.768249055395
94.5,3.79070389333479,-14.75,54.2548799027482,47.0470455710297,266.769970227419
95,3.79062102832781,-14.75,54.2478714347655,47.0411527810652,266.771692274836
95.5,3.7905381819667,-14.75,54.2408629667829,47.0352599911007,266.773414343679
96,3.79045533560558,-14.75,54.2338544988002,47.0293672011362,266.775136412522
96.5,3.79037248924447,-14.75,54.2268460308176,47.0234744111717,266.776858481366
97,3.79028995602941,-14.75,54.2198375628349,47.0175816212072,266.77858068041
97.5,3.79020780015199,-14.75,54.2128290948523,47.0116888312427,266.780303036347
98,3.79012564427456,-14.75,54.2058206268696,47.0057960412782,266.782025392283
98.5,3.79004348839713,-14.75,54.198812158887,46.9999032513137,266.78374774822
99,3.78996133251971,-14.75,54.1918036909043,46.9940104613492,266.785470104156
99.5,3.78987974938622,-14.75,54.1847952229216,46.9881176713847,266.787192253776
100,3.78979820875055,-14.75,54.177786754939,46.9822248814202,266.788914388086
100.5,3.78971666811488,-14.75,54.1707782869563,46.9763320914557,266.790636522397
101,3.78963512747921,-14.75,54.1637698189737,46.9704393014913,266.792358656708
101.5,3.78955381208165,-14.75,54.156761350991,46.9645465115268,266.794080524693
102,3.78947282304983,-14.75,54.1497528830084,46.9586537215623,266.795802006778
102.5,3.78939183401802,-14.75,54.1427444150257,46.9527609315978,266.797523488862
103,3.78931084498621,-14.75,54.1357359470431,46.9468681416333,266.799244970947
103.5,3.7892298559544,-14.75,54.1287274790604,46.9409753516688,266.800966453031
104,3.78914950741381,-14.75,54.1217190110777,46.9350825617043,266.802686446066
104.5,3.78906924149531,-14.75,54.1147105430951,46.9291897717398,266.804406247017
105,3.78898897557681,-14.75,54.1077020751124,46.9232969817753,266.806126047967
105.5,3.7889087096583,-14.75,54.1006936071298,46.9174041918108,266.807845848918
106,3.7888284437398,-14.75,54.0936851391471,46.9115114018463,266.809565649869
106.5,3.7887481778213,-14.75,54.0866766711645,46.9056186118818,266.811285450819
107,3.7886679119028,-14.75,54.0796682031818,46.8997258219173,266.81300525177
107.5,3.7885876459843,-14.75,54.0726597351991,46.8938330319528,266.81472505272
108,3.7885073800658,-14.75,54.0656512672165,46.8879402419883,266.816444853671
108.5,3.78842780579195,-14.75,54.0586427992338,46.8820474520238,266.818162009434
109,3.78834836271403,-14.75,54.0516343312512,46.8761546620593,266.819878663439
109.5,3.7882689196361,-14.75,54.0446258632685,46.8702618720948,266.821595317445
110,3.78818947655817,-14.75,54.0376173952859,46.8643690821303,266.823311971451
110.5,3.78811003348024,-14.75,54.0306089273032,46.8584762921658,266.825028625456
111,3.78803059040231,-14.75,54.0236004593206,46.8525835022013,266.826745279462
111.5,3.78795114732439,-14.75,54.0165919913379,46.8466907122368,266.828461933467
112,3.78787170424646,-14.75,54.0095835233553,46.8407979222723,266.830178587473
112.5,3.78779226116853,-14.75,54.0025750553726,46.8349051323078,266.831895241478
113,3.7877133665034,-14.75,53.99556658739,46.8290123423433,266.833608783424
113.5,3.78763461292899,-14.75,53.9885581194073,46.8231195523788,266.835321524726
114,3.78755585935458,-14.75,53.9815496514246,46.8172267624144,266.837034266029
114.5,3.78747710578017,-14.75,53.974541183442,46.8113339724499,266.838747007332
115,3.78739835220576,-14.75,53.9675327154593,46.8054411824854,266.840459748634
115.5,3.78731959863135,-14.75,53.9605242474767,46.7995483925209,266.842172489937
116,3.78724084505694,-14.75,53.953515779494,46.7936556025564,266.843885231239
116.5,3.78716209148253,-14.75,53.9465073115114,46.7877628125919,266.845597972542
117,3.78708333790812,-14.75,53.9394988435287,46.7818700226274,266.847310713844
117.5,3.78700502486842,-14.75,53.9324903755461,46.7759772326629,266.849020131103
118,3.78692685852516,-14.75,53.9254819075634,46.7700844426984,266.850728441468
118.5,3.7868486921819,-14.75,53.9184734395808,46.7641916527339,266.852436751832
119,3.78677052583864,-14.75,53.9114649715981,46.7582988627694,266.854145062197
119.5,3.78669235949538,-14.75,53.9044565036154,46.7524060728049,266.855853372561
120,3.78661419315212,-14.75,53.8974480356328,46.7465132828404,266.857561682926
120.5,3.78653602680886,-14.75,53.8904395676501,46.7406204928759,266.85926999329
121,3.7864578604656,-14.75,53.8834310996675,46.7347277029114,266.860978303655
121.5,3.78637969412234,-14.75,53.8764226316848,46.7288349129469,266.862686614019
122,3.78630188527309,-14.75,53.8694141637022,46.7229421229824,266.864391566604
122.5,3.7862242260094,-14.75,53.8624056957195,46.7170493330179,266.866095114198
123,3.78614656674572,-14.75,53.8553972277369,46.7111565430534,266.867798661792
123.5,3.78606890748203,-14.75,53.8483887597542,46.7052637530889,266.869502209386
124,3.78599124821834,-14.75,53.8413802917716,46.6993709631245,266.871205756981
124.5,3.78591358895465,-14.75,53.8343718237889,46.69347817316,266.872909304575
125,3.78583592969097,-14.75,53.8273633558063,46.6875853831955,266.874612852169
125.5,3.78575827042728,-14.75,53.8203548878236,46.681692593231,266.876316399764
126,3.78568061116359,-14.75,53.8133464198409,46.6757998032665,266.878019947358
126.5,3.78560324403527,-14.75,53.8063379518583,46.669907013302,266.879720220071
127,3.78552602752041,-14.75,53.7993294838756,46.6640142233375,266.881418804385
