time,voltage,curr_density,SOC,SOC_est,temp
0,3.75286226403847,-29.5,45,39.26545,286
0.5,3.75249129843693,-29.5,44.9859830640347,39.253664420071,286.005631975336
1,3.75215227856878,-29.5,44.9719661280694,39.241878840142,286.011027700517
1.5,3.75183136617642,-29.5,44.9579491921041,39.230093260213,286.016458963766
2,3.75152415685973,-29.5,44.9439322561388,39.218307680284,286.021920703919
2.5,3.75122915731836,-29.5,44.9299153201734,39.206522100355,286.027412001655
3,3.75094351322892,-29.5,44.9158983842081,39.1947365204261,286.032927385582
3.5,3.75066636223327,-29.5,44.9018814482428,39.1829509404971,286.038465621065
4,3.75039737734557,-29.5,44.8878645122775,39.1711653605681,286.044026755636
4.5,3.75013573269901,-29.5,44.8738475763122,39.1593797806391,286.049609261628
5,3.74988020435099,-29.5,44.8598306403469,39.1475942007101,286.05521011014
5.5,3.74963029362234,-29.5,44.8458137043816,39.1358086207811,286.060828204812
6,3.74938735459347,-29.5,44.8317967684163,39.1240230408521,286.06646822848
6.5,3.74914728552319,-29.5,44.817779832451,39.1122374609231,286.07211746852
7,3.748912483682,-29.5,44.8037628964857,39.1004518809941,286.077783704906
7.5,3.74868233574873,-29.5,44.7897459605204,39.0886663010651,286.083465229496
8,3.74845479265135,-29.5,44.7757290245551,39.0768807211361,286.089155331775
8.5,3.74823266433047,-29.5,44.7617120885897,39.0650951412071,286.094863413438
9,3.74801324073193,-29.5,44.7476951526244,39.0533095612782,286.100580524023
9.5,3.74779654576458,-29.5,44.7336782166591,39.0415239813492,286.106306743342
10,3.74758429604773,-29.5,44.7196612806938,39.0297384014202,286.112047800206
10.5,3.74737390275895,-29.5,44.7056443447285,39.0179528214912,286.117795033228
11,3.74716669036211,-29.5,44.6916274087632,39.0061672415622,286.123552835773
11.5,3.74696238998907,-29.5,44.6776104727979,38.9943816616332,286.129320222102
12,3.74675972700513,-29.5,44.6635935368326,38.9825960817042,286.135092978483
12.5,3.7465605365142,-29.5,44.6495766008673,38.9708105017752,286.140876991524
13,3.74636312733488,-29.5,44.635559664902,38.9590249218462,286.14666665909
13.5,3.74616750839383,-29.5,44.6215427289367,38.9472393419172,286.152462009521
14,3.74597626958651,-29.5,44.6075257929713,38.9354537619882,286.158270816883
14.5,3.74578552319728,-29.5,44.593508857006,38.9236681820592,286.164081137084
15,3.74559477680806,-29.5,44.5794919210407,38.9118826021303,286.169891457285
15.5,3.74540808889589,-29.5,44.5654749850754,38.9000970222013,286.175713579784
16,3.74522314596363,-29.5,44.5514580491101,38.8883114422723,286.181540776791
16.5,3.74503820303136,-29.5,44.5374411131448,38.8765258623433,286.187367973798
17,3.74485581094708,-29.5,44.5234241771795,38.8647402824143,286.193201985745
17.5,3.74467597276535,-29.5,44.5094072412142,38.8529547024853,286.199042820794
18,3.74449613458362,-29.5,44.4953903052489,38.8411691225563,286.204883655842
18.5,3.7443176550608,-29.5,44.4813733692836,38.8293835426273,286.21072773438
19,3.74414234451948,-29.5,44.4673564333183,38.8175979626983,286.216579378141
19.5,3.74396703397816,-29.5,44.4533394973529,38.8058123827693,286.222431021903
20,3.74379212958521,-29.5,44.4393225613876,38.7940268028403,286.228283499395
20.5,3.74362086188158,-29.5,44.4253056254223,38.7822412229114,286.234143442186
21,3.74344959417795,-29.5,44.411288689457,38.7704556429824,286.240003384977
21.5,3.74327832647432,-29.5,44.3972717534917,38.7586700630534,286.245863327767
22,3.74311032985585,-29.5,44.3832548175264,38.7468844831244,286.251728744359
22.5,3.74294269329652,-29.5,44.3692378815611,38.7350989031954,286.25759476347
23,3.74277505673719,-29.5,44.3552209455958,38.7233133232664,286.263460782581
23.5,3.7426097174032,-29.5,44.3412040096305,38.7115277433374,286.269329695159
24,3.74244535687715,-29.5,44.3271870736652,38.6997421634084,286.275199840592
24.5,3.7422809963511,-29.5,44.3131701376999,38.6879565834794,286.281069986026
25,3.74211812471699,-29.5,44.2991532017345,38.6761710035504,286.28694132524
25.5,3.74195673246559,-29.5,44.2851362657692,38.6643854236214,286.292813850609
26,3.74179534021418,-29.5,44.2711193298039,38.6525998436924,286.298686375979
26.5,3.74163476325655,-29.5,44.2571023938386,38.6408142637635,286.304559144231
27,3.7414760708142,-29.5,44.2430854578733,38.6290286838345,286.310432473893
27.5,3.74131737837185,-29.5,44.229068521908,38.6172431039055,286.316305803555
28,3.74115893820396,-29.5,44.2150515859427,38.6054575239765,286.322179072227
28.5,3.74100271028878,-29.5,44.2010346499774,38.5936719440475,286.328051806059
29,3.74084648237359,-29.5,44.1870177140121,38.5818863641185,286.33392453989
29.5,3.74069025445841,-29.5,44.1730007780468,38.5701007841895,286.339797273722
30,3.74053606348869,-29.5,44.1589838420815,38.5583152042605,286.345668345114
30.5,3.74038209197073,-29.5,44.1449669061162,38.5465296243315,286.351539237403
31,3.74022812045277,-29.5,44.1309499701508,38.5347440444025,286.357410129691
31.5,3.7400762769705,-29.5,44.1169330341855,38.5229584644735,286.36327754334
32,3.73992533200246,-29.5,44.1029160982202,38.5111728845445,286.369143488213
32.5,3.73977438703442,-29.5,44.0888991622549,38.4993873046156,286.375009433086
33,3.73962344206638,-29.5,44.0748822262896,38.4876017246866,286.380875377959
33.5,3.73947249709834,-29.5,44.0608652903243,38.4758161447576,286.386741322833
34,3.7393215521303,-29.5,44.046848354359,38.4640305648286,286.392607267706
34.5,3.73917167905756,-29.5,44.0328314183937,38.4522449848996,286.39847025686
35,3.73902426141826,-29.5,44.0188144824284,38.4404594049706,286.40432647523
35.5,3.73887684377897,-29.5,44.0047975464631,38.4286738250416,286.4101826936
36,3.73872942613968,-29.5,43.9907806104978,38.4168882451126,286.416038911971
36.5,3.73858200850038,-29.5,43.9767636745325,38.4051026651836,286.421895130341
37,3.73843459086109,-29.5,43.9627467385671,38.3933170852546,286.427751348711
37.5,3.7382871732218,-29.5,43.9487298026018,38.3815315053256,286.433607567081
38,3.73814248851528,-29.5,43.9347128666365,38.3697459253967,286.439452148869
38.5,3.73799809188153,-29.5,43.9206959306712,38.3579603454677,286.445295504069
39,3.73785369524778,-29.5,43.9066789947059,38.3461747655387,286.451138859268
39.5,3.73770929861403,-29.5,43.8926620587406,38.3343891856097,286.456982214468
40,3.73756490198028,-29.5,43.8786451227753,38.3226036056807,286.462825569668
40.5,3.73742050534653,-29.5,43.86462818681,38.3108180257517,286.468668924868
41,3.73727742785405,-29.5,43.8506112508447,38.2990324458227,286.474504504661
41.5,3.73713564129413,-29.5,43.8365943148794,38.2872468658937,286.480332475318
42,3.7369938547342,-29.5,43.8225773789141,38.2754612859647,286.486160445975
42.5,3.73685206817428,-29.5,43.8085604429487,38.2636757060357,286.491988416633
43,3.73671028161436,-29.5,43.7945435069834,38.2518901261067,286.49781638729
43.5,3.73656849505443,-29.5,43.7805265710181,38.2401045461777,286.503644357947
44,3.73642694972501,-29.5,43.7665096350528,38.2283189662488,286.509470478135
44.5,3.73628743540433,-29.5,43.7524926990875,38.2165333863198,286.515281018539
45,3.73614792108365,-29.5,43.7384757631222,38.2047478063908,286.521091558942
45.5,3.73600840676297,-29.5,43.7244588271569,38.1929622264618,286.526902099346
46,3.73586889244229,-29.5,43.7104418911916,38.1811766465328,286.532712639749
46.5,3.7357293781216,-29.5,43.6964249552263,38.1693910666038,286.538523180152
47,3.73558986380092,-29.5,43.682408019261,38.1576054866748,286.544333720556
47.5,3.73545125764821,-29.5,43.6683910832956,38.1458199067458,286.550135985887
48,3.73531310453199,-29.5,43.6543741473303,38.1340343268168,286.555934034353
48.5,3.73517558935392,-29.5,43.640357211365,38.1222487468878,286.561725529205
49,3.73503807417586,-29.5,43.6263402753997,38.1104631669588,286.567517024056
49.5,3.73490055899779,-29.5,43.6123233394344,38.0986775870298,286.573308518908
50,3.79285272168498,4.10317512307811,43.5983170477824,38.0869009569459,286.57908981813
50.5,3.81163839804314,14.75,43.6053198777424,38.0927890064046,286.575692157794
51,3.81197628181885,14.75,43.612328345725,38.0986817963691,286.572726719268
51.5,3.81229044962138,14.75,43.6193368137077,38.1045745863336,286.569760144744
52,3.81258551899517,14.75,43.6263452816903,38.110467376298,286.566796613884
52.5,3.81286562039511,14.75,43.633353749673,38.1163601662625,286.563838521977
53,3.81313233651707,14.75,43.6403622176556,38.122252956227,286.560887876864
53.5,3.81338730434445,14.75,43.6473706856383,38.1281457461915,286.557946106208
54,3.81363043318262,14.75,43.654379153621,38.134038536156,286.55501589463
54.5,3.81386557248728,14.75,43.6613876216036,38.1399313261205,286.552095127723
55,3.81409224977188,14.75,43.6683960895863,38.145824116085,286.54918574488
55.5,3.81431122905149,14.75,43.6754045575689,38.1517169060495,286.546288253233
56,3.81452316369209,14.75,43.6824130255516,38.157609696014,286.543403042813
56.5,3.81472861866454,14.75,43.6894214935342,38.1635024859785,286.540530416441
57,3.81492808907836,14.75,43.6964299615169,38.169395275943,286.537670604259
57.5,3.81512201242478,14.75,43.7034384294995,38.1752880659075,286.534823787983
58,3.81531054606306,14.75,43.7104468974822,38.181180855872,286.531990744735
58.5,3.81549417933682,14.75,43.7174553654648,38.1870736458365,286.529171298534
59,3.81567335042628,14.75,43.7244638334475,38.192966435801,286.526365177083
59.5,3.81584831245771,14.75,43.7314723014302,38.1988592257655,286.523572523112
60,3.81601982985347,14.75,43.7384807694128,38.20475201573,286.520791422685
60.5,3.76534709859187,-14.75,43.7314807115917,38.1988662971134,286.522309811806
61,3.76518762040159,-14.75,43.7244722436091,38.192973507149,286.52357643946
61.5,3.76504196060626,-14.75,43.7174637756264,38.1870807171845,286.524855221525
62,3.76490694981845,-14.75,43.7104553076438,38.18118792722,286.526144972729
62.5,3.76477955466805,-14.75,43.7034468396611,38.1752951372555,286.52744334547
63,3.76465951426448,-14.75,43.6964383716785,38.169402347291,286.528750625979
63.5,3.76454492061117,-14.75,43.6894299036958,38.1635095573265,286.53006491479
64,3.76443573123585,-14.75,43.6824214357132,38.157616767362,286.531386505068
64.5,3.76433063990107,-14.75,43.6754129677305,38.1517239773975,286.532713854143
65,3.76422994335413,-14.75,43.6684044997478,38.145831187433,286.534047562087
65.5,3.76413235851988,-14.75,43.6613960317652,38.1399383974685,286.535385942587
66,3.76403744465761,-14.75,43.6543875637825,38.134045607504,286.536728392596
66.5,3.76394500555417,-14.75,43.6473790957999,38.1281528175395,286.538074665718
67,3.76385576343262,-14.75,43.6403706278172,38.122260027575,286.539425936514
67.5,3.76376847300905,-14.75,43.6333621598346,38.1163672376105,286.540780271856
68,3.76368295145352,-14.75,43.6263536918519,38.110474447646,286.542137387786
68.5,3.76359909367024,-14.75,43.6193452238693,38.1045816576815,286.543497122213
69,3.76351746726688,-14.75,43.6123367558866,38.098688867717,286.544860348594
69.5,3.76343715301669,-14.75,43.605328287904,38.0927960777525,286.546225601577
70,3.7633580855201,-14.75,43.5983198199213,38.086903287788,286.547592763311
70.5,3.7632802407286,-14.75,43.5913113519386,38.0810104978235,286.548961777016
71,3.7632039627473,-14.75,43.584302883956,38.075117707859,286.550333089124
71.5,3.7631286471602,-14.75,43.5772944159733,38.0692249178945,286.551705748951
72,3.76305442679446,-14.75,43.5702859479907,38.06333212793,286.55307989424
72.5,3.76298157268779,-14.75,43.563277480008,38.0574393379655,286.554455839025
73,3.76290871858113,-14.75,43.5562690120254,38.051546548001,286.55583178381
73.5,3.76283720878308,-14.75,43.5492605440427,38.0456537580366,286.557209308601
74,3.76276656726667,-14.75,43.5422520760601,38.0397609680721,286.55858785391
74.5,3.76269592575025,-14.75,43.5352436080774,38.0338681781076,286.559966399219
75,3.76262701067389,-14.75,43.5282351400948,38.0279753881431,286.561346642301
75.5,3.7625582367315,-14.75,43.5212266721121,38.0220825981786,286.562727024174
76,3.76248984769899,-14.75,43.5142182041294,38.0161898082141,286.564107690509
76.5,3.76242266899885,-14.75,43.5072097361468,38.0102970182496,286.565489251324
77,3.76235549029872,-14.75,43.5002012681641,38.0044042282851,286.56687081214
77.5,3.76228908054124,-14.75,43.4931928001815,37.9985114383206,286.568252711633
78,3.76222327952129,-14.75,43.4861843321988,37.9926186483561,286.569634879243
78.5,3.76215747850134,-14.75,43.4791758642162,37.9867258583916,286.571017046852
79,3.76209272816704,-14.75,43.4721673962335,37.9808330684271,286.572399322132
79.5,3.7620281279307,-14.75,43.4651589282509,37.9749402784626,286.573781612795
80,3.76196373003085,-14.75,43.4581504602682,37.9690474884981,286.575163850303
80.5,3.76190018441634,-14.75,43.4511419922856,37.9631546985336,286.576545863916
81,3.76183663880183,-14.75,43.4441335243029,37.9572619085691,286.57792787753
81.5,3.76177356785379,-14.75,43.4371250563202,37.9513691186046,286.579309578801
82,3.76171095531095,-14.75,43.4301165883376,37.9454763286401,286.580690978431
82.5,3.76164834276811,-14.75,43.4231081203549,37.9395835386756,286.582072378061
83,3.76158641669182,-14.75,43.4160996523723,37.9336907487111,286.583453022285
83.5,3.7615246356544,-14.75,43.4090911843896,37.9277979587466,286.584833506905
84,3.76146296085004,-14.75,43.402082716407,37.9219051687821,286.586213823169
84.5,3.76140192568643,-14.75,43.3950742484243,37.9160123788176,286.587593125745
85,3.76134089052283,-14.75,43.3880657804417,37.9101195888531,286.588972428321
85.5,3.7612803049755,-14.75,43.381057312459,37.9042267988887,286.590350700783
86,3.76122024876111,-14.75,43.3740488444763,37.8983340089242,286.591727760495
86.5,3.76116019254671,-14.75,43.3670403764937,37.8924412189597,286.593104820206
87,3.76110013633232,-14.75,43.360031908511,37.8865484289952,286.594481879917
87.5,3.76104008011792,-14.75,43.3530234405284,37.8806556390307,286.595858939628
88,3.76098012780418,-14.75,43.3460149725457,37.8747628490662,286.597235665918
88.5,3.76092118882012,-14.75,43.3390065045631,37.8688700591017,286.598609140388
89,3.76086224983607,-14.75,43.3319980365804,37.8629772691372,286.599982614859
89.5,3.76080331085202,-14.75,43.3249895685978,37.8570844791727,286.60135608933
90,3.76074437186797,-14.75,43.3179811006151,37.8511916892082,286.602729563801
90.5,3.76068543288391,-14.75,43.3109726326325,37.8452988992437,286.604103038271
91,3.7606271771848,-14.75,43.3039641646498,37.8394061092792,286.605473486315
91.5,3.76056917844215,-14.75,43.2969556966672,37.8335133193147,286.606842796238
92,3.7605111796995,-14.75,43.2899472286845,37.8276205293502,286.608212106161
92.5,3.76045318095685,-14.75,43.2829387607018,37.8217277393857,286.609581416085
93,3.7603951822142,-14.75,43.2759302927192,37.8158349494212,286.610950726008
93.5,3.76033747368556,-14.75,43.2689218247365,37.8099421594567,286.612318367965
94,3.76028028013994,-14.75,43.2619133567539,37.8040493694922,286.613683050126
94.5,3.76022308659432,-14.75,43.2549048887712,37.7981565795277,286.615047732287
95,3.7601658930487,-14.75,43.2478964207886,37.7922637895632,286.616412414449
95.5,3.76010869950308,-14.75,43.2408879528059,37.7863709995987,286.61777709661
96,3.76005150595746,-14.75,43.2338794848233,37.7804782096342,286.619141778771
96.5,3.7599950091501,-14.75,43.2268710168406,37.7745854196697,286.620501484377
97,3.75993851644975,-14.75,43.219862548858,37.7686926297053,286.621861160647
97.5,3.7598820237494,-14.75,43.2128540808753,37.7627998397408,286.623220836918
98,3.75982553104906,-14.75,43.2058456128927,37.7569070497763,286.624580513189
98.5,3.75976903834871,-14.75,43.19883714491,37.7510142598118,286.62594018946
99,3.75971293388258,-14.75,43.1918286769274,37.7451214698473,286.627296527475
99.5,3.75965705953359,-14.75,43.1848202089447,37.7392286798828,286.628650886814
100,3.7596011851846,-14.75,43.177811740962,37.7333358899183,286.630005246153
100.5,3.75954531083561,-14.75,43.1708032729794,37.7274430999538,286.631359605492
101,3.75948943648661,-14.75,43.1637948049967,37.7215503099893,286.632713964831
101.5,3.7594337064187,-14.75,43.1567863370141,37.7156575200248,286.634066873138
102,3.75937838367125,-14.75,43.1497778690314,37.7097647300603,286.635415685033
102.5,3.7593230609238,-14.75,43.1427694010488,37.7038719400958,286.636764496929
103,3.75926773817635,-14.75,43.1357609330661,37.6979791501313,286.638113308824
103.5,3.7592124154289,-14.75,43.1287524650834,37.6920863601668,286.639462120719
104,3.75915709268144,-14.75,43.1217439971008,37.6861935702023,286.640810932614
104.5,3.75910221498669,-14.75,43.1147355291181,37.6803007802378,286.642154622447
105,3.75904738934851,-14.75,43.1077270611355,37.6744079902733,286.643497713167
105.5,3.75899256371033,-14.75,43.1007185931528,37.6685152003088,286.644840803886
106,3.75893773807216,-14.75,43.0937101251702,37.6626224103443,286.646183894606
106.5,3.75888291243398,-14.75,43.0867016571875,37.6567296203798,286.647526985325
107,3.75882832616656,-14.75,43.0796931892049,37.6508368304153,286.648866965834
107.5,3.75877395302915,-14.75,43.0726847212222,37.6449440404508,286.650204177085
108,3.75871957989174,-14.75,43.0656762532396,37.6390512504863,286.651541388335
108.5,3.75866520675433,-14.75,43.0586677852569,37.6331584605219,286.652878599586
109,3.75861083361693,-14.75,43.0516593172742,37.6272656705574,286.654215810837
109.5,3.75855652811848,-14.75,43.0446508492916,37.6213728805929,286.655552043708
110,3.75850257068596,-14.75,43.0376423813089,37.6154800906284,286.656883241894
110.5,3.75844861325345,-14.75,43.0306339133263,37.6095873006639,286.658214440081
111,3.75839465582093,-14.75,43.0236254453436,37.6036945106994,286.659545638268
111.5,3.75834069838841,-14.75,43.016616977361,37.5978017207349,286.660876836454
112,3.7582867409559,-14.75,43.0096085093783,37.5919089307704,286.662208034641
112.5,3.75823323333919,-14.75,43.0026000413957,37.5860161408059,286.663531908612
113,3.75817984070184,-14.75,42.995591573413,37.5801233508414,286.66485391041
113.5,3.75812644806449,-14.75,42.9885831054304,37.5742305608769,286.666175912207
114,3.75807305542713,-14.75,42.9815746374477,37.5683377709124,286.667497914005
114.5,3.75801966278978,-14.75,42.974566169465,37.5624449809479,286.668819915802
115,3.75796627015243,-14.75,42.9675577014824,37.5565521909834,286.6701419176
115.5,3.75791287751508,-14.75,42.9605492334997,37.5506594010189,286.671463919397
116,3.75785948487772,-14.75,42.9535407655171,37.5447666110544,286.672785921195
116.5,3.75780609224037,-14.75,42.9465322975344,37.5388738210899,286.674107922992
117,3.75775269960302,-14.75,42.9395238295518,37.5329810311254,286.67542992479
117.5,3.75769935012677,-14.75,42.9325153615691,37.5270882411609,286.676751130572
118,3.75764663345984,-14.75,42.9255068935865,37.5211954511964,286.678060665529
118.5,3.75759391679291,-14.75,42.9184984256038,37.5153026612319,286.679370200486
119,3.75754120012598,-14.75,42.9114899576211,37.5094098712674,286.680679735443
119.5,3.75748848345905,-14.75,42.9044814896385,37.5035170813029,286.6819892704
120,3.75743576679212,-14.75,42.8974730216558,37.4976242913384,286.683298805357
120.5,3.75738305012518,-14.75,42.8904645536732,37.4917315013739,286.684608340314
121,3.75733033345825,-14.75,42.8834560856905,37.4858387114095,286.685917875271
121.5,3.75727761679132,-14.75,42.8764476177079,37.479945921445,286.687227410228
122,3.75722490012439,-14.75,42.8694391497252,37.4740531314805,286.688536945185
122.5,3.75717218345746,-14.75,42.8624306817426,37.468160341516,286.689846480142
123,3.75711966726815,-14.75,42.8554222137599,37.4622675515515,286.691151839955
123.5,3.75706755576508,-14.75,42.8484137457772,37.456374761587,286.692448771781
124,3.757015444262,-14.75,42.8414052777946,37.4504819716225,286.693745703607
124.5,3.75696333275893,-14.75,42.8343968098119,37.444589181658,286.695042635432
125,3.75691122125585,-14.75,42.8273883418293,37.4386963916935,286.696339567258
125.5,3.75685910975277,-14.75,42.8203798738466,37.432803601729,286.697636499083
126,3.7568069982497,-14.75,42.813371405864,37.4269108117645,286.698933430909
126.5,3.75675488674662,-14.75,42.8063629378813,37.4210180218,286.700230362735
127,3.75670277524355,-14.75,42.7993544698987,37.4151252318355,286.70152729456
