time,voltage,curr_density,SOC,SOC_est,temp
0,3.78127828932945,-29.5,54,46.83274,271
0.5,3.78083410842222,-29.5,53.9859830640347,46.820954420071,271.005604978272
1,3.78041705586062,-29.5,53.9719661280694,46.809168840142,271.011053932398
1.5,3.78001686604577,-29.5,53.9579491921041,46.797383260213,271.01656475046
2,3.77962835829236,-29.5,53.9439322561388,46.785597680284,271.022125776065
2.5,3.77925035931336,-29.5,53.9299153201735,46.773812100355,271.02773717732
3,3.77888049104355,-29.5,53.9158983842082,46.7620265204261,271.033390660831
3.5,3.77851791111549,-29.5,53.9018814482428,46.7502409404971,271.039083831168
4,3.77816282691668,-29.5,53.8878645122775,46.7384553605681,271.044819788468
4.5,3.77781401933066,-29.5,53.8738475763122,46.7266697806391,271.050592975281
5,3.77747100807988,-29.5,53.8598306403469,46.7148842007101,271.056401615936
5.5,3.77713484710572,-29.5,53.8458137043816,46.7030986207811,271.062253340112
6,3.77680313319794,-29.5,53.8317967684163,46.6913130408521,271.06813389413
6.5,3.77647550657136,-29.5,53.817779832451,46.6795274609231,271.074041110034
7,3.77615384500148,-29.5,53.8037628964857,46.6677418809941,271.079987967842
7.5,3.77583669797882,-29.5,53.7897459605204,46.6559563010651,271.085965667731
8,3.77552303018672,-29.5,53.7757290245551,46.6441707211361,271.091967297088
8.5,3.77521389890307,-29.5,53.7617120885897,46.6323851412071,271.098000393465
9,3.77490934591739,-29.5,53.7476951526244,46.6205995612782,271.104065812788
9.5,3.77460781393605,-29.5,53.7336782166591,46.6088139813492,271.110152759906
10,3.77430969605033,-29.5,53.7196612806938,46.5970284014202,271.116264165097
10.5,3.77401617275979,-29.5,53.7056443447285,46.5852428214912,271.122408876141
11,3.77372530445568,-29.5,53.6916274087632,46.5734572415622,271.128572992777
11.5,3.77343706187819,-29.5,53.6776104727979,46.5616716616332,271.134756337524
12,3.77315322139334,-29.5,53.6635935368326,46.5498860817042,271.140972163548
12.5,3.77287300319856,-29.5,53.6495766008673,46.5381005017752,271.147214916467
13,3.77259545998578,-29.5,53.635559664902,46.5263149218462,271.153477554309
13.5,3.77231791677299,-29.5,53.6215427289367,46.5145293419172,271.159740192151
14,3.7720456505659,-29.5,53.6075257929713,46.5027437619882,271.166042262544
14.5,3.77177583575222,-29.5,53.593508857006,46.4909581820592,271.172362651033
15,3.77150602093854,-29.5,53.5794919210407,46.4791726021302,271.178683039522
15.5,3.77124176414158,-29.5,53.5654749850754,46.4673870222013,271.18504503192
16,3.77097898124565,-29.5,53.5514580491101,46.4556014422723,271.191418057037
16.5,3.77071619834971,-29.5,53.5374411131448,46.4438158623433,271.197791082155
17,3.77045919614333,-29.5,53.5234241771795,46.4320302824143,271.204207197777
17.5,3.77020285061426,-29.5,53.5094072412142,46.4202447024853,271.210628208412
18,3.76994653811199,-29.5,53.4953903052489,46.4084591225563,271.217049463074
18.5,3.76969611019458,-29.5,53.4813733692836,46.3966735426273,271.223514197565
19,3.76944568227716,-29.5,53.4673564333183,46.3848879626983,271.229978932055
19.5,3.76919587278085,-29.5,53.4533394973529,46.3731023827693,271.236448173836
20,3.76895090927756,-29.5,53.4393225613876,46.3613168028403,271.242952735082
20.5,3.76870594577427,-29.5,53.4253056254223,46.3495312229113,271.249457296327
21,3.76846209996111,-29.5,53.411288689457,46.3377456429823,271.25596985106
21.5,3.7682221992907,-29.5,53.3972717534917,46.3259600630534,271.262510620631
22,3.76798229862029,-29.5,53.3832548175264,46.3141744831244,271.269051390203
22.5,3.76774394344411,-29.5,53.3692378815611,46.3023889031954,271.275602945536
23,3.7675087495504,-29.5,53.3552209455958,46.2906033232664,271.282176562962
23.5,3.76727355565668,-29.5,53.3412040096305,46.2788177433374,271.288750180389
24,3.76704027438504,-29.5,53.3271870736652,46.2670321634084,271.295336768224
24.5,3.76680946777797,-29.5,53.3131701376999,46.2552465834794,271.301940137948
25,3.7665786611709,-29.5,53.2991532017345,46.2434610035504,271.308543507672
25.5,3.76635008372469,-29.5,53.2851362657692,46.2316754236214,271.315161496539
26,3.76612337832431,-29.5,53.2711193298039,46.2198898436924,271.321791762539
26.5,3.76589667292393,-29.5,53.2571023938386,46.2081042637635,271.328422028539
27,3.76567246863467,-29.5,53.2430854578733,46.1963186838345,271.335068078811
27.5,3.7654496044249,-29.5,53.229068521908,46.1845331039055,271.341722586196
28,3.76522674021512,-29.5,53.2150515859427,46.1727475239765,271.34837709358
28.5,3.7650078995978,-29.5,53.2010346499774,46.1609619440475,271.355055499397
29,3.76479033851689,-29.5,53.1870177140121,46.1491763641185,271.361741505118
29.5,3.76457277743597,-29.5,53.1730007780468,46.1373907841895,271.368427510839
30,3.76435521635506,-29.5,53.1589838420815,46.1256052042605,271.375113516559
30.5,3.76413765527415,-29.5,53.1449669061162,46.1138196243315,271.38179952228
31,3.76392009419324,-29.5,53.1309499701509,46.1020340444025,271.388485528001
31.5,3.76370876438092,-29.5,53.1169330341855,46.0902484644736,271.395205259317
32,3.76349760154256,-29.5,53.1029160982202,46.0784628845446,271.40192589435
32.5,3.7632864387042,-29.5,53.0888991622549,46.0666773046156,271.408646529383
33,3.76307527586583,-29.5,53.0748822262896,46.0548917246866,271.415367164416
33.5,3.76286411302747,-29.5,53.0608652903243,46.0431061447576,271.422087799449
34,3.76265402798688,-29.5,53.046848354359,46.0313205648286,271.428813498545
34.5,3.76244856519365,-29.5,53.0328314183937,46.0195349848996,271.435560915401
35,3.76224310240042,-29.5,53.0188144824284,46.0077494049706,271.442308332258
35.5,3.7620376396072,-29.5,53.0047975464631,45.9959638250416,271.449055749115
36,3.76183217681397,-29.5,52.9907806104977,45.9841782451126,271.455803165971
36.5,3.76162671402074,-29.5,52.9767636745324,45.9723926651836,271.462550582828
37,3.76142331521754,-29.5,52.9627467385671,45.9606070852546,271.46930606183
37.5,3.76122295791728,-29.5,52.9487298026018,45.9488215053256,271.476073421237
38,3.76102260061703,-29.5,52.9347128666365,45.9370359253966,271.482840780645
38.5,3.76082224331677,-29.5,52.9206959306712,45.9252503454676,271.489608140052
39,3.76062188601652,-29.5,52.9066789947059,45.9134647655387,271.49637549946
39.5,3.76042152871626,-29.5,52.8926620587406,45.9016791856097,271.503142858867
40,3.76022401581365,-29.5,52.8786451227753,45.8898936056807,271.509918872521
40.5,3.76002825031613,-29.5,52.86462818681,45.8781080257517,271.516700202756
41,3.75983248481861,-29.5,52.8506112508447,45.8663224458227,271.523481532992
41.5,3.75963671932109,-29.5,52.8365943148793,45.8545368658937,271.530262863227
42,3.75944095382357,-29.5,52.822577378914,45.8427512859647,271.537044193463
42.5,3.75924518832605,-29.5,52.8085604429487,45.8309657060357,271.543825523698
43,3.75905288282702,-29.5,52.7945435069834,45.8191801261067,271.550614132322
43.5,3.75886126285802,-29.5,52.7805265710181,45.8073945461777,271.557404183015
44,3.75866964288902,-29.5,52.7665096350528,45.7956089662487,271.564194233707
44.5,3.75847802292002,-29.5,52.7524926990875,45.7838233863198,271.570984284399
45,3.75828640295103,-29.5,52.7384757631222,45.7720378063908,271.577774335092
45.5,3.75809496988062,-29.5,52.7244588271569,45.7602522264618,271.584564590362
46,3.75790710164937,-29.5,52.7104418911916,45.7484666465328,271.591358747686
46.5,3.75771923341813,-29.5,52.6964249552263,45.7366810666038,271.598152905009
47,3.75753136518688,-29.5,52.682408019261,45.7248954866748,271.604947062333
47.5,3.75734349695563,-29.5,52.6683910832956,45.7131099067458,271.611741219657
48,3.75715562872438,-29.5,52.6543741473303,45.7013243268168,271.618535376981
48.5,3.7569683378599,-29.5,52.640357211365,45.6895387468878,271.625329699732
49,3.75678264837759,-29.5,52.6263402753997,45.6777531669588,271.632124481312
49.5,3.75659749847528,-29.5,52.6123233394344,45.6659675870299,271.638919135956
50,3.81694616415814,0.411807350302702,52.5983158784976,45.6541899737996,271.645708954256
50.5,3.84642824272891,14.75,52.6053172646706,45.6600768093077,271.642677287174
51,3.84684871313481,14.75,52.6123257326532,45.6659695992722,271.639974865196
51.5,3.84724378230163,14.75,52.6193342006359,45.6718623892367,271.637237918715
52,3.84761992570174,14.75,52.6263426686185,45.6777551792011,271.634476442717
52.5,3.84798165124445,14.75,52.6333511366012,45.6836479691656,271.631698576061
53,3.84833054558702,14.75,52.6403596045838,45.6895407591301,271.628908778592
53.5,3.84866805796957,14.75,52.6473680725665,45.6954335490946,271.626111171083
54,3.8489943484306,14.75,52.6543765405491,45.7013263390591,271.623308868549
54.5,3.84931211667836,14.75,52.6613850085318,45.7072191290236,271.620505281456
55,3.84962115464822,14.75,52.6683934765144,45.7131119189881,271.617702325835
55.5,3.84992207671854,14.75,52.6754019444971,45.7190047089526,271.614901977194
56,3.85021541622727,14.75,52.6824104124798,45.7248974989171,271.612105896847
56.5,3.8505016432147,14.75,52.6894188804624,45.7307902888816,271.609315507208
57,3.85078117981615,14.75,52.6964273484451,45.7366830788461,271.606532038753
57.5,3.85105440955891,14.75,52.7034358164277,45.7425758688106,271.603756551965
58,3.85132168142272,14.75,52.7104442844104,45.7484686587751,271.600989961974
58.5,3.85158229716337,14.75,52.717452752393,45.7543614487396,271.598235170058
59,3.85183778190365,14.75,52.7244612203757,45.7602542387041,271.59549027838
59.5,3.85209118827077,14.75,52.7314696883584,45.7661470286686,271.592749939466
60,3.81346778338279,-4.74561014049986,52.7384725983541,45.7720351454221,271.590027623093
60.5,3.7933281012265,-14.75,52.7314717667234,45.7661487761787,271.591475068817
61,3.79315838290315,-14.75,52.7244632987407,45.7602559862142,271.592730682904
61.5,3.79300192690182,-14.75,52.7174548307581,45.7543631962497,271.594008968603
62,3.79285434754187,-14.75,52.7104463627754,45.7484704062852,271.595304453966
62.5,3.79271362791757,-14.75,52.7034378947927,45.7425776163207,271.596614621079
63,3.79257864271779,-14.75,52.6964294268101,45.7366848263562,271.597938019871
63.5,3.79244792478983,-14.75,52.6894209588274,45.7307920363917,271.5992718551
64,3.79232182300502,-14.75,52.6824124908448,45.7248992464272,271.60061752646
64.5,3.79219901471653,-14.75,52.6754040228621,45.7190064564627,271.601971977793
65,3.79208002691207,-14.75,52.6683955548795,45.7131136664982,271.60333697102
65.5,3.79196339074862,-14.75,52.6613870868968,45.7072208765337,271.60470861387
66,3.79185006679306,-14.75,52.6543786189142,45.7013280865692,271.606089865519
66.5,3.79173884712224,-14.75,52.6473701509315,45.6954352966047,271.607477351647
67,3.79162963076506,-14.75,52.6403616829489,45.6895425066402,271.608870828154
67.5,3.79152282211189,-14.75,52.6333532149662,45.6836497166757,271.61027161261
68,3.79141810967804,-14.75,52.6263447469836,45.6777569267112,271.611678859348
68.5,3.79131493766513,-14.75,52.6193362790009,45.6718641367467,271.613090896969
69,3.79121323975306,-14.75,52.6123278110182,45.6659713467822,271.614507542873
69.5,3.79111351308278,-14.75,52.6053193430356,45.6600785568178,271.615930394291
70,3.79101515008605,-14.75,52.5983108750529,45.6541857668533,271.617357552946
70.5,3.79091795159742,-14.75,52.5913024070703,45.6482929768888,271.618788395971
71,3.79082191051351,-14.75,52.5842939390876,45.6424001869243,271.620222906717
71.5,3.79072815114771,-14.75,52.577285471105,45.6365073969598,271.621664611045
72,3.79063444958187,-14.75,52.5702770031223,45.6306146069953,271.623106497599
72.5,3.79054140761822,-14.75,52.5632685351397,45.6247218170308,271.62455045297
73,3.79045041332978,-14.75,52.556260067157,45.6188290270663,271.626000830795
73.5,3.79035941904134,-14.75,52.5492515991743,45.6129362371018,271.62745120862
74,3.79026960074301,-14.75,52.5422431311917,45.6070434471373,271.628905201866
74.5,3.79018090336969,-14.75,52.535234663209,45.6011506571728,271.630362641242
75,3.79009220599636,-14.75,52.5282261952264,45.5952578672083,271.631820080619
75.5,3.79000504188155,-14.75,52.5212177272437,45.5893650772438,271.633282060186
76,3.78991830938518,-14.75,52.5142092592611,45.5834722872793,271.634745317835
76.5,3.78983165948924,-14.75,52.5072007912784,45.5775794973148,271.636208807431
77,3.78974662381699,-14.75,52.5001923232958,45.5716867073503,271.637676829868
77.5,3.78966158814473,-14.75,52.4931838553131,45.5657939173858,271.639144852305
78,3.78957702075001,-14.75,52.4861753873305,45.5599011274213,271.640614109398
78.5,3.78949346217393,-14.75,52.4791669193478,45.5540083374568,271.642086026335
79,3.78940990359784,-14.75,52.4721584513652,45.5481155474923,271.643557943272
79.5,3.78932710233298,-14.75,52.4651499833825,45.5422227575278,271.645031706049
80,3.7892448374831,-14.75,52.4581415153999,45.5363299675633,271.646506776263
80.5,3.78916257263322,-14.75,52.4511330474172,45.5304371775989,271.647981846477
81,3.78908128064148,-14.75,52.4441245794345,45.5245443876344,271.649459051107
81.5,3.78900015534544,-14.75,52.4371161114519,45.5186515976699,271.650936621461
82,3.78891915333219,-14.75,52.4301076434692,45.5127588077054,271.652414427206
82.5,3.78883903801449,-14.75,52.4230991754866,45.5068660177409,271.653893925969
83,3.78875892269679,-14.75,52.4160907075039,45.5009732277764,271.655373424731
83.5,3.78867915895153,-14.75,52.4090822395213,45.4950804378119,271.656853484398
84,3.78859994415234,-14.75,52.4020737715386,45.4891876478474,271.658334419861
84.5,3.78852072935316,-14.75,52.395065303556,45.4832948578829,271.659815355325
85,3.78844204614285,-14.75,52.3880568355733,45.4774020679184,271.661296964758
85.5,3.78836363830057,-14.75,52.3810483675907,45.4715092779539,271.662778923314
86,3.78828523045829,-14.75,52.374039899608,45.4656164879894,271.664260881871
86.5,3.78820780151515,-14.75,52.3670314316253,45.4597236980249,271.665743601784
87,3.78813044954076,-14.75,52.3600229636427,45.4538309080604,271.667226381561
87.5,3.78805309756638,-14.75,52.35301449566,45.4479381180959,271.668709161339
88,3.787975745592,-14.75,52.3460060276774,45.4420453281314,271.670191941116
88.5,3.78789839361761,-14.75,52.3389975596947,45.4361525381669,271.671674720893
89,3.78782159705252,-14.75,52.3319890917121,45.4302597482024,271.673157568308
89.5,3.7877454426062,-14.75,52.3249806237294,45.4243669582379,271.674640493919
90,3.78766928815989,-14.75,52.3179721557468,45.4184741682734,271.676123419531
90.5,3.78759313371358,-14.75,52.3109636877641,45.4125813783089,271.677606345142
91,3.78751697926726,-14.75,52.3039552197814,45.4066885883444,271.679089270753
91.5,3.7874408253095,-14.75,52.2969467517988,45.4007957983799,271.680572195969
92,3.787365669644,-14.75,52.2899382838161,45.3949030084154,271.682054312832
92.5,3.78729051397851,-14.75,52.2829298158335,45.3890102184509,271.683536429694
93,3.78721535831301,-14.75,52.2759213478508,45.3831174284864,271.685018546557
93.5,3.78714020264751,-14.75,52.2689128798682,45.377224638522,271.68650066342
94,3.78706504698202,-14.75,52.2619044118855,45.3713318485575,271.687982780282
94.5,3.78699034586184,-14.75,52.2548959439029,45.365439058593,271.689464064374
95,3.78691603636295,-14.75,52.2478874759202,45.3595462686285,271.690944630979
95.5,3.78684172686405,-14.75,52.2408790079376,45.353653478664,271.692425197584
96,3.78676741736516,-14.75,52.2338705399549,45.3477606886995,271.693905764188
96.5,3.78669310786627,-14.75,52.2268620719722,45.341867898735,271.695386330793
97,3.78661885207803,-14.75,52.2198536039896,45.3359751087705,271.696866740761
97.5,3.78654526963185,-14.75,52.2128451360069,45.330082318806,271.698345187059
98,3.78647168718567,-14.75,52.2058366680243,45.3241895288415,271.699823633358
98.5,3.78639810473948,-14.75,52.1988282000416,45.318296738877,271.701302079656
99,3.7863245222933,-14.75,52.191819732059,45.3124039489125,271.702780525955
99.5,3.78625093984712,-14.75,52.1848112640763,45.306511158948,271.704258972253
100,3.78617774365297,-14.75,52.1778027960937,45.3006183689835,271.705735865901
100.5,3.78610479381865,-14.75,52.170794328111,45.294725579019,271.707211769236
101,3.78603184398433,-14.75,52.1637858601283,45.2888327890545,271.708687672571
101.5,3.78595889415001,-14.75,52.1567773921457,45.28293999909,271.710163575906
102,3.78588594431569,-14.75,52.149768924163,45.2770472091255,271.71163947924
102.5,3.785813076438,-14.75,52.1427604561804,45.271154419161,271.713114958978
103,3.78574068314797,-14.75,52.1357519881977,45.2652616291965,271.714587985788
103.5,3.78566828985794,-14.75,52.1287435202151,45.259368839232,271.716061012598
104,3.7855958965679,-14.75,52.1217350522324,45.2534760492675,271.717534039408
104.5,3.78552350327787,-14.75,52.1147265842498,45.247583259303,271.719007066218
105,3.78545110998784,-14.75,52.1077181162671,45.2416904693385,271.720480093028
105.5,3.78537905495675,-14.75,52.1007096482844,45.235797679374,271.721950960432
106,3.78530715623168,-14.75,52.0937011803018,45.2299048894095,271.723420829997
106.5,3.7852352575066,-14.75,52.0866927123191,45.2240120994451,271.724890699562
107,3.78516335878153,-14.75,52.0796842443365,45.2181193094806,271.726360569127
107.5,3.78509146005645,-14.75,52.0726757763538,45.2122265195161,271.727830438692
108,3.78501965923513,-14.75,52.0656673083712,45.2063337295516,271.729299565592
108.5,3.78494820422582,-14.75,52.0586588403885,45.2004409395871,271.730766069281
109,3.7848767492165,-14.75,52.0516503724059,45.1945481496226,271.73223257297
109.5,3.78480529420719,-14.75,52.0446419044232,45.1886553596581,271.733699076659
110,3.78473383919788,-14.75,52.0376334364406,45.1827625696936,271.735165580348
110.5,3.78466238418857,-14.75,52.0306249684579,45.1768697797291,271.736632084037
111,3.78459123342936,-14.75,52.0236165004753,45.1709769897646,271.738095924995
111.5,3.78452018015633,-14.75,52.0166080324926,45.1650841998001,271.739558912776
112,3.78444912688329,-14.75,52.00959956451,45.1591914098356,271.741021900556
112.5,3.78437807361026,-14.75,52.0025910965273,45.1532986198711,271.742484888336
113,3.78430702033723,-14.75,51.9955826285446,45.1474058299066,271.743947876117
113.5,3.78423612457509,-14.75,51.988574160562,45.1415130399421,271.745409259608
114,3.78416560699773,-14.75,51.9815656925793,45.1356202499776,271.746866791188
114.5,3.78409508942036,-14.75,51.9745572245967,45.1297274600131,271.748324322767
115,3.784024571843,-14.75,51.967548756614,45.1238346700486,271.749781854347
115.5,3.78395405426563,-14.75,51.9605402886314,45.1179418800841,271.751239385927
116,3.78388353668826,-14.75,51.9535318206487,45.1120490901196,271.752696917507
116.5,3.7838130191109,-14.75,51.9465233526661,45.1061563001551,271.754154449087
117,3.78374250153353,-14.75,51.9395148846834,45.1002635101907,271.755611980667
117.5,3.78367198395616,-14.75,51.9325064167008,45.0943707202262,271.757069512247
118,3.7836014663788,-14.75,51.9254979487181,45.0884779302617,271.758527043826
118.5,3.78353094880143,-14.75,51.9184894807354,45.0825851402972,271.759984575406
119,3.78346066132143,-14.75,51.9114810127528,45.0766923503327,271.761439367229
119.5,3.78339077000265,-14.75,51.9044725447701,45.0707995603682,271.762889441982
120,3.78332087868387,-14.75,51.8974640767875,45.0649067704037,271.764339516736
120.5,3.78325098736509,-14.75,51.8904556088048,45.0590139804392,271.765789591489
121,3.7831810960463,-14.75,51.8834471408222,45.0531211904747,271.767239666242
121.5,3.78311120472752,-14.75,51.8764386728395,45.0472284005102,271.768689740995
122,3.78304131340874,-14.75,51.8694302048569,45.0413356105457,271.770139815748
122.5,3.78297142208996,-14.75,51.8624217368742,45.0354428205812,271.771589890501
123,3.78290153077118,-14.75,51.8554132688915,45.0295500306167,271.773039965254
123.5,3.7828316394524,-14.75,51.8484048009089,45.0236572406522,271.774490040007
124,3.78276174813362,-14.75,51.8413963329262,45.0177644506877,271.77594011476
124.5,3.78269209709621,-14.75,51.8343878649436,45.0118716607232,271.777386871934
125,3.78262275087882,-14.75,51.8273793969609,45.0059788707587,271.77882942044
125.5,3.78255340466143,-14.75,51.8203709289783,45.0000860807942,271.780271968947
126,3.78248405844404,-14.75,51.8133624609956,44.9941932908297,271.781714517453
126.5,3.78241471222665,-14.75,51.806353993013,44.9883005008652,271.78315706596
127,3.78234536600926,-14.75,51.7993455250303,44.9824077109007,271.784599614466
