time,voltage,curr_density,SOC,SOC_est,temp
0,3.73785779941203,-29.5,38,33.37978,320
0.5,3.73755380276721,-29.5,37.9859830640347,33.367994420071,320.006194378277
1,3.73727900876607,-29.5,37.9719661280694,33.356208840142,320.012078401388
1.5,3.73702169455,-29.5,37.9579491921041,33.344423260213,320.017983009326
2,3.73677732381433,-29.5,37.9439322561388,33.332637680284,320.023904712721
2.5,3.73654333250717,-29.5,37.9299153201735,33.320852100355,320.029841210912
3,3.73631856167337,-29.5,37.9158983842082,33.3090665204261,320.035791721752
3.5,3.73610063477754,-29.5,37.9018814482429,33.2972809404971,320.041753066835
4,3.73588909357895,-29.5,37.8878645122775,33.2854953605681,320.047724784344
4.5,3.73568317733984,-29.5,37.8738475763122,33.2737097806391,320.053705834234
5,3.7354822752962,-29.5,37.8598306403469,33.2619242007101,320.059695287573
5.5,3.73528588664033,-29.5,37.8458137043816,33.2501386207811,320.065692301965
6,3.7350935895588,-29.5,37.8317967684163,33.2383530408521,320.071696143572
6.5,3.73490527180528,-29.5,37.817779832451,33.2265674609231,320.077706566818
7,3.73472037150721,-29.5,37.8037628964857,33.2147818809941,320.083722526349
7.5,3.73453891845856,-29.5,37.7897459605204,33.2029963010651,320.089743897735
8,3.73436040084715,-29.5,37.7757290245551,33.1912107211361,320.09576974513
8.5,3.73418397801966,-29.5,37.7617120885898,33.1794251412071,320.101798605401
9,3.73401020144785,-29.5,37.7476951526245,33.1676395612782,320.107831271716
9.5,3.73383903293731,-29.5,37.7336782166591,33.1558539813492,320.113867350498
10,3.73366944201849,-29.5,37.7196612806938,33.1440684014202,320.11990549345
10.5,3.73350285049514,-29.5,37.7056443447285,33.1322828214912,320.12594705986
11,3.73333698854329,-29.5,37.6916274087632,33.1204972415622,320.131989458989
11.5,3.733174428201,-29.5,37.6776104727979,33.1087116616332,320.138034983153
12,3.73301242169739,-29.5,37.6635935368326,33.0969260817042,320.14408092283
12.5,3.7328529397716,-29.5,37.6495766008673,33.0851405017752,320.150128709289
13,3.73269441727974,-29.5,37.635559664902,33.0733549218462,320.156176968763
13.5,3.73253769143996,-29.5,37.6215427289367,33.0615693419172,320.162226114014
14,3.73238229939729,-29.5,37.6075257929714,33.0497837619882,320.168275572228
14.5,3.73222809315339,-29.5,37.593508857006,33.0379981820592,320.174325308676
15,3.73207553207011,-29.5,37.5794919210407,33.0262126021303,320.180374973744
15.5,3.7319236409183,-29.5,37.5654749850754,33.0144270222013,320.186424609745
16,3.73177454018776,-29.5,37.5514580491101,33.0026414422723,320.192473010832
16.5,3.73162577773507,-29.5,37.5374411131448,32.9908558623433,320.198521262213
17,3.73147701528238,-29.5,37.5234241771795,32.9790702824143,320.204569513593
17.5,3.73132919331395,-29.5,37.5094072412142,32.9672847024853,320.210616836712
18,3.73118412789783,-29.5,37.4953903052489,32.9554991225563,320.216661439102
18.5,3.7310390624817,-29.5,37.4813733692836,32.9437135426273,320.222706041492
19,3.73089399706557,-29.5,37.4673564333183,32.9319279626983,320.228750643882
19.5,3.73075092649709,-29.5,37.4533394973529,32.9201423827693,320.23479185255
20,3.7306090947544,-29.5,37.4393225613876,32.9083568028403,320.240830953673
20.5,3.73046726301172,-29.5,37.4253056254223,32.8965712229113,320.246870054796
21,3.73032543126904,-29.5,37.411288689457,32.8847856429823,320.252909155919
21.5,3.73018640650912,-29.5,37.3972717534917,32.8730000630534,320.25894133206
22,3.73004744076613,-29.5,37.3832548175264,32.8612144831244,320.264973362603
22.5,3.72990847502313,-29.5,37.3692378815611,32.8494289031954,320.271005393146
23,3.72977038884774,-29.5,37.3552209455958,32.8376433232664,320.277034545062
23.5,3.72963399556026,-29.5,37.3412040096305,32.8258577433374,320.283058156534
24,3.72949760227277,-29.5,37.3271870736652,32.8140721634084,320.289081768006
24.5,3.72936120898528,-29.5,37.3131701376999,32.8022865834794,320.295105379478
25,3.7292264607766,-29.5,37.2991532017346,32.7905010035504,320.301122223793
25.5,3.72909240283188,-29.5,37.2851362657692,32.7787154236214,320.307136228655
26,3.72895834488717,-29.5,37.2711193298039,32.7669298436925,320.313150233516
26.5,3.72882443014415,-29.5,37.2571023938386,32.7551442637635,320.319163527546
27,3.72869251155793,-29.5,37.2430854578733,32.7433586838345,320.325166912949
27.5,3.72856059297171,-29.5,37.229068521908,32.7315731039055,320.331170298353
28,3.72842867438549,-29.5,37.2150515859427,32.7197875239765,320.337173683756
28.5,3.7282976044595,-29.5,37.2010346499774,32.7080019440475,320.343172115494
29,3.72816766204615,-29.5,37.1870177140121,32.6962163641185,320.349163965894
29.5,3.7280377196328,-29.5,37.1730007780468,32.6844307841895,320.355155816294
30,3.72790777721945,-29.5,37.1589838420815,32.6726452042605,320.361147666695
30.5,3.72777929183435,-29.5,37.1449669061162,32.6608596243315,320.36712974263
31,3.72765118920543,-29.5,37.1309499701509,32.6490740444025,320.373109250847
31.5,3.72752308657651,-29.5,37.1169330341855,32.6372884644735,320.379088759064
32,3.72739525040966,-29.5,37.1029160982202,32.6255028845446,320.385066247879
32.5,3.7272688728387,-29.5,37.0888991622549,32.6137173046156,320.391032682617
33,3.72714249526775,-29.5,37.0748822262896,32.6019317246866,320.396999117355
33.5,3.72701611769679,-29.5,37.0608652903243,32.5901461447576,320.402965552092
34,3.72689058131881,-29.5,37.046848354359,32.5783605648286,320.40892487893
34.5,3.72676583089167,-29.5,37.0328314183937,32.5665749848996,320.414877564651
35,3.72664108046453,-29.5,37.0188144824284,32.5547894049706,320.420830250371
35.5,3.72651633003739,-29.5,37.0047975464631,32.5430038250416,320.426782936092
36,3.72639358317908,-29.5,36.9907806104978,32.5312182451126,320.432716397734
36.5,3.72627111086843,-29.5,36.9767636745324,32.5194326651836,320.438647225114
37,3.72614863855778,-29.5,36.9627467385671,32.5076470852546,320.444578052494
37.5,3.72602616624713,-29.5,36.9487298026018,32.4958615053256,320.450508879874
38,3.72590369393647,-29.5,36.9347128666365,32.4840759253967,320.456439707254
38.5,3.72578122162582,-29.5,36.9206959306712,32.4722903454677,320.462370534633
39,3.72565874931517,-29.5,36.9066789947059,32.4605047655387,320.468301362013
39.5,3.72553797718517,-29.5,36.8926620587406,32.4487191856097,320.474213446636
40,3.72541831739615,-29.5,36.8786451227753,32.4369336056807,320.480113268835
40.5,3.72529865760714,-29.5,36.86462818681,32.4251480257517,320.486013091033
41,3.72517899781813,-29.5,36.8506112508447,32.4133624458227,320.491912913232
41.5,3.72505933802912,-29.5,36.8365943148794,32.4015768658937,320.497812735431
42,3.72493967824011,-29.5,36.822577378914,32.3897912859647,320.503712557629
42.5,3.7248200184511,-29.5,36.8085604429487,32.3780057060357,320.509612379828
43,3.7247012129324,-29.5,36.7945435069834,32.3662201261067,320.515501321639
43.5,3.72458414558664,-29.5,36.7805265710181,32.3544345461777,320.521368125264
44,3.72446707824088,-29.5,36.7665096350528,32.3426489662488,320.527234928889
44.5,3.72435001089512,-29.5,36.7524926990875,32.3308633863198,320.533101732515
45,3.72423294354936,-29.5,36.7384757631222,32.3190778063908,320.53896853614
45.5,3.7241158762036,-29.5,36.7244588271569,32.3072922264618,320.544835339765
46,3.72399880885784,-29.5,36.7104418911916,32.2955066465328,320.55070214339
46.5,3.72388182526051,-29.5,36.6964249552263,32.2837210666038,320.556567774524
47,3.72376629338656,-29.5,36.682408019261,32.2719354866748,320.562413081303
47.5,3.72365096974582,-29.5,36.6683910832956,32.2601499067458,320.568255257286
48,3.72353632097454,-29.5,36.6543741473303,32.2483643268168,320.574087286577
48.5,3.72342167220325,-29.5,36.640357211365,32.2365787468878,320.579919315867
49,3.72330702343197,-29.5,36.6263402753997,32.2247931669588,320.585751345158
49.5,3.72319279482811,-29.5,36.6123233394344,32.2130075870298,320.591576848825
50,3.77735374591143,9.78375420995525,36.598318847177,32.2012324698949,320.59738956621
50.5,3.78452411210132,14.75,36.6053223374634,32.2071210745626,320.593290629454
51,3.78479669626884,14.75,36.6123308054461,32.2130138645271,320.589711943101
51.5,3.78504718732313,14.75,36.6193392734287,32.2189066544916,320.586139886391
52,3.78528142764197,14.75,36.6263477414114,32.2247994444561,320.582576635579
52.5,3.78550226257997,14.75,36.633356209394,32.2306922344206,320.57902370963
53,3.78571196581869,14.75,36.6403646773767,32.2365850243851,320.575482097548
53.5,3.78591130268931,14.75,36.6473731453593,32.2424778143496,320.571953844433
54,3.78610337274993,14.75,36.654381613342,32.2483706043141,320.568436820635
54.5,3.78628821303878,14.75,36.6613900813246,32.2542633942786,320.564932632365
55,3.78646663320867,14.75,36.6683985493073,32.2601561842431,320.561441562315
55.5,3.78663929780704,14.75,36.67540701729,32.2660489742076,320.557963801222
56,3.78680676218326,14.75,36.6824154852726,32.2719417641721,320.554499459756
56.5,3.78696949961852,14.75,36.6894239532553,32.2778345541366,320.551048627895
57,3.78712791871291,14.75,36.6964324212379,32.2837273441011,320.547611371437
57.5,3.78728237428862,14.75,36.7034408892206,32.2896201340656,320.544187736201
58,3.78743317623523,14.75,36.7104493572032,32.29551292403,320.540777736807
58.5,3.78758059767722,14.75,36.7174578251859,32.3014057139945,320.537381364615
59,3.78772387701675,14.75,36.7244662931685,32.307298503959,320.534003333342
59.5,3.78786591462815,14.75,36.7314747611512,32.3131912939235,320.530630915829
60,3.78800508109607,14.75,36.7384832291338,32.319084083888,320.527272579035
60.5,3.74747925497723,-14.75,36.7314831713128,32.3131983652715,320.529150802078
61,3.74735066666928,-14.75,36.7244747033301,32.307305575307,320.530711307936
61.5,3.7472360625192,-14.75,36.7174662353475,32.3014127853425,320.532278884124
62,3.74713179186815,-14.75,36.7104577673648,32.295519995378,320.533852245001
62.5,3.74703556240572,-14.75,36.7034492993821,32.2896272054135,320.535430344388
63,3.74694536092969,-14.75,36.6964408313995,32.283734415449,320.53701202904
63.5,3.74686071872138,-14.75,36.6894323634168,32.2778416254845,320.538596983902
64,3.74678034333657,-14.75,36.6824238954342,32.27194883552,320.540184368546
64.5,3.74670438706242,-14.75,36.6754154274515,32.2660560455555,320.541774077003
65,3.74663080104693,-14.75,36.6684069594689,32.260163255591,320.54336492311
65.5,3.74656052988543,-14.75,36.6613984914862,32.2542704656265,320.544957217898
66,3.74649296499501,-14.75,36.6543900235036,32.248377675662,320.546550444138
66.5,3.74642739693832,-14.75,36.6473815555209,32.2424848856975,320.548144185675
67,3.74636367175006,-14.75,36.6403730875383,32.236592095733,320.549738266152
67.5,3.74630190629157,-14.75,36.6333646195556,32.2306993057686,320.551332477748
68,3.7462420011539,-14.75,36.626356151573,32.2248065158041,320.552926495202
68.5,3.74618340328466,-14.75,36.6193476835903,32.2189137258396,320.554520185897
69,3.74612602836493,-14.75,36.6123392156076,32.2130209358751,320.556113440383
69.5,3.74606990309207,-14.75,36.605330747625,32.2071281459106,320.557706069199
70,3.74601513593807,-14.75,36.5983222796423,32.2012353559461,320.559297698785
70.5,3.74596127599962,-14.75,36.5913138116597,32.1953425659816,320.560888453211
71,3.74590842747361,-14.75,36.584305343677,32.1894497760171,320.562478007947
71.5,3.74585678677539,-14.75,36.5772968756944,32.1835569860526,320.564065893954
72,3.74580514607717,-14.75,36.5702884077117,32.1776641960881,320.565653779961
72.5,3.745754771466,-14.75,36.5632799397291,32.1717714061236,320.567239205781
73,3.74570505257191,-14.75,36.5562714717464,32.1658786161591,320.56882335745
73.5,3.74565537356126,-14.75,36.5492630037637,32.1599858261946,320.570407400694
74,3.74560723467066,-14.75,36.5422545357811,32.1540930362301,320.571987257109
74.5,3.74555909578005,-14.75,36.5352460677984,32.1482002462656,320.573567113524
75,3.74551147135671,-14.75,36.5282375998158,32.1423074563011,320.575145108475
75.5,3.74546464594156,-14.75,36.5212291318331,32.1364146663366,320.576720212426
76,3.74541782052641,-14.75,36.5142206638505,32.1305218763721,320.578295316378
76.5,3.74537183247168,-14.75,36.5072121958678,32.1246290864076,320.579866523835
77,3.74532611157108,-14.75,36.5002037278852,32.1187362964431,320.581436488143
77.5,3.74528050742432,-14.75,36.4931952599025,32.1128435064786,320.583005773699
78,3.74523572380404,-14.75,36.4861867919199,32.1069507165141,320.5845702891
78.5,3.74519094018377,-14.75,36.4791783239372,32.1010579265496,320.586134804501
79,3.74514654963616,-14.75,36.4721698559546,32.0951651365851,320.587696510392
79.5,3.74510256655823,-14.75,36.4651613879719,32.0892723466207,320.589255303869
80,3.74505858348031,-14.75,36.4581529199892,32.0833795566562,320.590814097347
80.5,3.74501519068635,-14.75,36.4511444520066,32.0774867666917,320.592367807469
81,3.74497189602694,-14.75,36.4441359840239,32.0715939767272,320.593920672485
81.5,3.74492873499754,-14.75,36.4371275160413,32.0657011867627,320.595472179575
82,3.74488603719211,-14.75,36.4301190480586,32.0598083967982,320.597018979464
82.5,3.74484333938668,-14.75,36.423110580076,32.0539156068337,320.598565779352
83,3.74480094954355,-14.75,36.4161021120933,32.0480228168692,320.600108923676
83.5,3.74475877341461,-14.75,36.4090936441107,32.0421300269047,320.601649531176
84,3.74471659728566,-14.75,36.402085176128,32.0362372369402,320.603190138676
84.5,3.74467505572602,-14.75,36.3950767081453,32.0303444469757,320.604721671843
85,3.74463354283602,-14.75,36.3880682401627,32.0244516570112,320.606252795035
85.5,3.74459202994602,-14.75,36.38105977218,32.0185588670467,320.607783918227
86,3.74455051705602,-14.75,36.3740513041974,32.0126660770822,320.609315041419
86.5,3.74450900416602,-14.75,36.3670428362147,32.0067732871177,320.610846164611
87,3.74446799509369,-14.75,36.3600343682321,32.0008804971532,320.612368323996
87.5,3.74442721273848,-14.75,36.3530259002494,31.9949877071887,320.613886449682
88,3.74438643038328,-14.75,36.3460174322668,31.9890949172242,320.615404575369
88.5,3.74434564802807,-14.75,36.3390089642841,31.9832021272597,320.616922701056
89,3.74430486567287,-14.75,36.3320004963015,31.9773093372952,320.618440826743
89.5,3.74426433388683,-14.75,36.3249920283188,31.9714165473307,320.619953341087
90,3.74422414454055,-14.75,36.3179835603361,31.9655237573662,320.621458186704
90.5,3.74418395519426,-14.75,36.3109750923535,31.9596309674017,320.622963032322
91,3.74414376584798,-14.75,36.3039666243708,31.9537381774372,320.624467877939
91.5,3.74410357650169,-14.75,36.2969581563882,31.9478453874727,320.625972723556
92,3.74406346412786,-14.75,36.2899496884055,31.9419525975083,320.627475489564
92.5,3.74402377003195,-14.75,36.2829412204229,31.9360598075438,320.628966954712
93,3.74398407593603,-14.75,36.2759327524402,31.9301670175793,320.63045841986
93.5,3.74394438184011,-14.75,36.2689242844576,31.9242742276148,320.631949885009
94,3.7439046877442,-14.75,36.2619158164749,31.9183814376503,320.633441350157
94.5,3.74386499364828,-14.75,36.2549073484923,31.9124886476858,320.634932815306
95,3.7438256774042,-14.75,36.2478988805096,31.9065958577213,320.63641237658
95.5,3.7437864086715,-14.75,36.240890412527,31.9007030677568,320.637890441051
96,3.7437471399388,-14.75,36.2338819445443,31.8948102777923,320.639368505522
96.5,3.7437078712061,-14.75,36.2268734765616,31.8889174878278,320.640846569993
97,3.7436686024734,-14.75,36.219865008579,31.8830246978633,320.642324634464
97.5,3.74362956609739,-14.75,36.2128565405963,31.8771319078988,320.643794355604
98,3.74359067141765,-14.75,36.2058480726137,31.8712391179343,320.645258988796
98.5,3.74355177673791,-14.75,36.198839604631,31.8653463279698,320.646723621987
99,3.74351288205816,-14.75,36.1918311366484,31.8594535380053,320.648188255179
99.5,3.74347398737842,-14.75,36.1848226686657,31.8535607480408,320.64965288837
100,3.74343521131558,-14.75,36.1778142006831,31.8476679580763,320.651112761717
100.5,3.74339665164626,-14.75,36.1708057327004,31.8417751681118,320.65256395165
101,3.74335809197694,-14.75,36.1637972647178,31.8358823781473,320.654015141583
101.5,3.74331953230762,-14.75,36.1567887967351,31.8299895881828,320.655466331516
102,3.74328097263829,-14.75,36.1497803287524,31.8240967982183,320.656917521449
102.5,3.7432424394698,-14.75,36.1427718607698,31.8182040082539,320.658367545748
103,3.743204184576,-14.75,36.1357633927871,31.8123112182894,320.659805330187
103.5,3.74316592968221,-14.75,36.1287549248045,31.8064184283249,320.661243114627
104,3.74312767478841,-14.75,36.1217464568218,31.8005256383604,320.662680899066
104.5,3.74308941989462,-14.75,36.1147379888392,31.7946328483959,320.664118683505
105,3.74305116500082,-14.75,36.1077295208565,31.7887400584314,320.665556467944
105.5,3.743013140649,-14.75,36.1007210528739,31.7828472684669,320.666983301415
106,3.74297516696068,-14.75,36.0937125848912,31.7769544785024,320.668407728321
106.5,3.74293719327235,-14.75,36.0867041169086,31.7710616885379,320.669832155226
107,3.74289921958402,-14.75,36.0796956489259,31.7651688985734,320.671256582132
107.5,3.7428612458957,-14.75,36.0726871809432,31.7592761086089,320.672681009038
108,3.74282341727483,-14.75,36.0656787129606,31.7533833186444,320.674098080328
108.5,3.74278570604881,-14.75,36.0586702449779,31.7474905286799,320.675509199137
109,3.7427479948228,-14.75,36.0516617769953,31.7415977387154,320.676920317946
109.5,3.74271028359679,-14.75,36.0446533090126,31.7357049487509,320.678331436755
110,3.74267257237078,-14.75,36.03764484103,31.7298121587864,320.679742555565
110.5,3.74263496518008,-14.75,36.0306363730473,31.7239193688219,320.681148007186
111,3.74259761822344,-14.75,36.0236279050647,31.7180265788574,320.682539282898
111.5,3.74256027126681,-14.75,36.016619437082,31.7121337888929,320.68393055861
112,3.74252292431017,-14.75,36.0096109690994,31.7062409989284,320.685321834321
112.5,3.74248557735354,-14.75,36.0026025011167,31.7003482089639,320.686713110033
113,3.7424482303969,-14.75,35.9955940331341,31.6944554189994,320.688104385745
113.5,3.74241088344027,-14.75,35.9885855651514,31.6885626290349,320.689495661457
114,3.74237353648363,-14.75,35.9815770971687,31.6826698390704,320.690886937169
114.5,3.742336189527,-14.75,35.9745686291861,31.676777049106,320.692278212881
115,3.74229884257036,-14.75,35.9675601612034,31.6708842591415,320.693669488592
115.5,3.74226149561373,-14.75,35.9605516932208,31.664991469177,320.695060764304
116,3.74222448373365,-14.75,35.9535432252381,31.6590986792125,320.696432350952
116.5,3.74218758273395,-14.75,35.9465347572555,31.653205889248,320.697797422281
117,3.74215068173425,-14.75,35.9395262892728,31.6473130992835,320.699162493609
117.5,3.74211378073455,-14.75,35.9325178212902,31.641420309319,320.700527564938
118,3.74207687973485,-14.75,35.9255093533075,31.6355275193545,320.701892636266
118.5,3.74203997873515,-14.75,35.9185008853249,31.62963472939,320.703257707595
119,3.74200307773545,-14.75,35.9114924173422,31.6237419394255,320.704622778923
119.5,3.74196617673575,-14.75,35.9044839493595,31.617849149461,320.705987850251
120,3.74192927573605,-14.75,35.8974754813769,31.6119563594965,320.70735292158
120.5,3.74189237473635,-14.75,35.8904670133942,31.606063569532,320.708717992908
121,3.74185556212084,-14.75,35.8834585454116,31.6001707795675,320.710077453675
121.5,3.74181906817656,-14.75,35.8764500774289,31.594277989603,320.711416685432
122,3.74178257423228,-14.75,35.8694416094463,31.5883851996385,320.712755917189
122.5,3.74174608028799,-14.75,35.8624331414636,31.582492409674,320.714095148946
123,3.74170958634371,-14.75,35.855424673481,31.5765996197095,320.715434380703
123.5,3.74167309239943,-14.75,35.8484162054983,31.570706829745,320.716773612461
124,3.74163659845514,-14.75,35.8414077375157,31.5648140397805,320.718112844218
124.5,3.74160010451086,-14.75,35.834399269533,31.558921249816,320.719452075975
125,3.74156361056658,-14.75,35.8273908015504,31.5530284598515,320.720791307732
125.5,3.74152711662229,-14.75,35.8203823335677,31.5471356698871,320.722130539489
126,3.74149062267801,-14.75,35.813373865585,31.5412428799226,320.723469771246
126.5,3.74145438503323,-14.75,35.8063653976024,31.5353500899581,320.724791606133
127,3.74141826640163,-14.75,35.7993569296197,31.5294572999936,320.726105362749
