time,voltage,curr_density,SOC,SOC_est,temp
0,3.82792893203369,-29.5,62,53.55922,286
0.5,3.82753414156797,-29.5,61.9859830640347,53.547434420071,286.005201443539
1,3.82717065769269,-29.5,61.9719661280694,53.535648840142,286.010239657784
1.5,3.82682506551629,-29.5,61.9579491921041,53.523863260213,286.015314621735
2,3.82649302272187,-29.5,61.9439322561388,53.512077680284,286.02042116104
2.5,3.82617312964404,-29.5,61.9299153201734,53.500292100355,286.02555851102
3,3.82586256856078,-29.5,61.9158983842081,53.488506520426,286.030721042508
3.5,3.82556047397775,-29.5,61.9018814482428,53.4767209404971,286.035907487107
4,3.82526643410241,-29.5,61.8878645122775,53.4649353605681,286.041117660309
4.5,3.8249798280217,-29.5,61.8738475763122,53.4531497806391,286.046350568288
5,3.8246993437161,-29.5,61.8598306403469,53.4413642007101,286.051602800203
5.5,3.8244244878794,-29.5,61.8458137043816,53.4295786207811,286.056873239383
6,3.82415657825283,-29.5,61.8317967684163,53.4177930408521,286.062166708183
6.5,3.82389149566634,-29.5,61.817779832451,53.4060074609231,286.067469752366
7,3.82363191104973,-29.5,61.8037628964857,53.3942218809941,286.072791542666
7.5,3.82337680357209,-29.5,61.7897459605204,53.3824363010651,286.078128935715
8,3.82312431810782,-29.5,61.7757290245551,53.3706507211361,286.083475483748
8.5,3.82287749451054,-29.5,61.7617120885898,53.3588651412071,286.088842018363
9,3.82263319462153,-29.5,61.7476951526244,53.3470795612782,286.094217530412
9.5,3.82239185292056,-29.5,61.7336782166591,53.3352939813492,286.099603565444
10,3.8221547977372,-29.5,61.7196612806938,53.3235084014202,286.105004898353
10.5,3.82191962110142,-29.5,61.7056443447285,53.3117228214912,286.110412927991
11,3.82168786434222,-29.5,61.6916274087632,53.2999372415622,286.115833140582
11.5,3.82145885562863,-29.5,61.6776104727979,53.2881516616332,286.121263087242
12,3.82123150737776,-29.5,61.6635935368326,53.2763660817042,286.126698909133
12.5,3.82100787876696,-29.5,61.6495766008673,53.2645805017752,286.132147778127
13,3.82078586131622,-29.5,61.6355596649019,53.2527949218462,286.137602214496
13.5,3.82056585802056,-29.5,61.6215427289366,53.2410093419172,286.143063610792
14,3.82035002175471,-29.5,61.6075257929713,53.2292237619882,286.148539024309
14.5,3.82013497196199,-29.5,61.593508857006,53.2174381820592,286.154017083395
15,3.81991992216928,-29.5,61.5794919210407,53.2056526021303,286.159495142482
15.5,3.81970862522032,-29.5,61.5654749850754,53.1938670222013,286.164985261655
16,3.81949948683219,-29.5,61.5514580491101,53.1820814422723,286.17048231755
16.5,3.81929034844406,-29.5,61.5374411131448,53.1702958623433,286.175979373445
17,3.81908344333842,-29.5,61.5234241771795,53.1585102824143,286.181483117074
17.5,3.81887951721,-29.5,61.5094072412142,53.1467247024853,286.186995781475
18,3.81867559108157,-29.5,61.4953903052489,53.1349391225563,286.192508445877
18.5,3.818472694186,-29.5,61.4813733692836,53.1231535426273,286.198023918778
19,3.81827340243796,-29.5,61.4673564333182,53.1113679626983,286.203549229158
19.5,3.81807411068993,-29.5,61.4533394973529,53.0995823827693,286.209074539537
20,3.81787488410077,-29.5,61.4393225613876,53.0877968028403,286.214600007281
20.5,3.81767974112859,-29.5,61.4253056254223,53.0760112229113,286.2201353373
21,3.81748459815642,-29.5,61.411288689457,53.0642256429824,286.22567066732
21.5,3.81728945518424,-29.5,61.3972717534917,53.0524400630534,286.231205997339
22,3.81709733606745,-29.5,61.3832548175264,53.0406544831244,286.23674754344
22.5,3.81690592936486,-29.5,61.3692378815611,53.0288689031954,286.242290554038
23,3.81671452266228,-29.5,61.3552209455958,53.0170833232664,286.247833564636
23.5,3.81652515417068,-29.5,61.3412040096305,53.0052977433374,286.253379933153
24,3.81633712790033,-29.5,61.3271870736652,52.9935121634084,286.258928512959
24.5,3.81614910162999,-29.5,61.3131701376998,52.9817265834794,286.264477092764
25,3.81596229362669,-29.5,61.2991532017345,52.9699410035504,286.270027130278
25.5,3.81577733942018,-29.5,61.2851362657692,52.9581554236214,286.27557938594
26,3.81559238521367,-29.5,61.2711193298039,52.9463698436924,286.281131641602
26.5,3.81540796411178,-29.5,61.2571023938386,52.9345842637634,286.286684271797
27,3.81522581303058,-29.5,61.2430854578733,52.9227986838345,286.292238496796
27.5,3.81504366194938,-29.5,61.229068521908,52.9110131039055,286.297792721796
28,3.81486151086817,-29.5,61.2150515859427,52.8992275239765,286.303346946795
28.5,3.81468188566978,-29.5,61.2010346499774,52.8874419440475,286.308901562703
29,3.81450230206086,-29.5,61.1870177140121,52.8756563641185,286.314456185048
29.5,3.81432271845193,-29.5,61.1730007780468,52.8638707841895,286.320010807392
30,3.81414496888537,-29.5,61.1589838420814,52.8520852042605,286.325564630876
30.5,3.8139677444144,-29.5,61.1449669061161,52.8402996243315,286.331118225642
31,3.81379051994344,-29.5,61.1309499701508,52.8285140444025,286.336671820408
31.5,3.81361511167454,-29.5,61.1169330341855,52.8167284644735,286.342223064173
32,3.81344106772142,-29.5,61.1029160982202,52.8049428845445,286.347772541887
32.5,3.81326702376831,-29.5,61.0888991622549,52.7931573046155,286.353322019601
33,3.8130929798152,-29.5,61.0748822262896,52.7813717246866,286.358871497315
33.5,3.81291893586209,-29.5,61.0608652903243,52.7695861447576,286.364420975028
34,3.81274489190898,-29.5,61.046848354359,52.7578005648286,286.369970452742
34.5,3.81257143881735,-29.5,61.0328314183937,52.7460149848996,286.375518474694
35,3.81240112792402,-29.5,61.0188144824284,52.7342294049706,286.381058754914
35.5,3.81223081703069,-29.5,61.0047975464631,52.7224438250416,286.386599035135
36,3.81206050613736,-29.5,60.9907806104978,52.7106582451126,286.392139315355
36.5,3.81189019524403,-29.5,60.9767636745324,52.6988726651836,286.397679595575
37,3.81171988435069,-29.5,60.9627467385671,52.6870870852546,286.403219875795
37.5,3.81154957345736,-29.5,60.9487298026018,52.6753015053256,286.408760156015
38,3.81138166902113,-29.5,60.9347128666365,52.6635159253967,286.414290655699
38.5,3.81121458603412,-29.5,60.9206959306712,52.6517303454677,286.419817816777
39,3.81104750304711,-29.5,60.9066789947059,52.6399447655387,286.425344977854
39.5,3.81088042006009,-29.5,60.8926620587406,52.6281591856097,286.430872138931
40,3.81071333707308,-29.5,60.8786451227753,52.6163736056807,286.436399300008
40.5,3.81054625408607,-29.5,60.86462818681,52.6045880257517,286.441926461085
41,3.81038010901883,-29.5,60.8506112508447,52.5928024458227,286.447448130581
41.5,3.81021584468376,-29.5,60.8365943148793,52.5810168658937,286.452958788269
42,3.81005158034869,-29.5,60.822577378914,52.5692312859647,286.458469445957
42.5,3.80988731601362,-29.5,60.8085604429487,52.5574457060357,286.463980103645
43,3.80972305167854,-29.5,60.7945435069834,52.5456601261067,286.469490761333
43.5,3.80955878734347,-29.5,60.7805265710181,52.5338745461777,286.475001419021
44,3.8093945230084,-29.5,60.7665096350528,52.5220889662487,286.480512076709
44.5,3.80923254278583,-29.5,60.7524926990875,52.5103033863198,286.486004910502
45,3.80907076120046,-29.5,60.7384757631222,52.4985178063908,286.491496194244
45.5,3.80890897961508,-29.5,60.7244588271569,52.4867322264618,286.496987477987
46,3.80874719802971,-29.5,60.7104418911916,52.4749466465328,286.502478761729
46.5,3.80858541644433,-29.5,60.6964249552262,52.4631610666038,286.507970045472
47,3.80842363485895,-29.5,60.6824080192609,52.4513754866748,286.513461329214
47.5,3.80826257212921,-29.5,60.6683910832956,52.4395899067458,286.518945886431
48,3.8081022077582,-29.5,60.6543741473303,52.4278043268168,286.524423908917
48.5,3.80794256154377,-29.5,60.640357211365,52.4160187468878,286.52989431217
49,3.80778299155775,-29.5,60.6263402753997,52.4042331669588,286.535363906683
49.5,3.80762342157172,-29.5,60.6123233394344,52.3924475870298,286.540833501195
50,3.882434850343,14.0807840075067,60.5983202082869,52.3806736143297,286.54629282349
50.5,3.88398992953607,14.75,60.6053280724461,52.3865658965934,286.543243716896
51,3.88434991963835,14.75,60.6123365404288,52.3924586865579,286.540525315161
51.5,3.88468558343143,14.75,60.6193450084114,52.3983514765224,286.537806036723
52,3.88500166549425,14.75,60.6263534763941,52.4042442664869,286.535089864892
52.5,3.88530235816193,14.75,60.6333619443767,52.4101370564514,286.532379104878
53,3.88558930604968,14.75,60.6403704123594,52.4160298464159,286.529675657188
53.5,3.88586419074158,14.75,60.6473788803421,52.4219226363804,286.526980831194
54,3.88612697154111,14.75,60.6543873483247,52.4278154263449,286.524297155675
54.5,3.88638150149531,14.75,60.6613958163074,52.4337082163094,286.521622655738
55,3.88662734734353,14.75,60.66840428429,52.4396010062739,286.518959113108
55.5,3.88686529503321,14.75,60.6754127522726,52.4454937962384,286.516306965582
56,3.88709601674169,14.75,60.6824212202553,52.4513865862029,286.513666555122
56.5,3.88732009382758,14.75,60.689429688238,52.4572793761674,286.511038148214
57,3.88753803574115,14.75,60.6964381562206,52.4631721661319,286.5084219534
57.5,3.88775029254481,14.75,60.7034466242033,52.4690649560964,286.50581812029
58,3.88795721752374,14.75,60.7104550921859,52.4749577460608,286.503226859811
58.5,3.88815893115368,14.75,60.7174635601686,52.4808505360253,286.500648914971
59,3.88835607528877,14.75,60.7244720281513,52.4867433259899,286.498083566632
59.5,3.888548817312,14.75,60.7314804961339,52.4926361159543,286.495531218441
60,3.88873817788284,14.75,60.7384889641166,52.4985289059188,286.492989326079
60.5,3.83818819063481,-14.75,60.7314889062955,52.4926431873023,286.494344378594
61,3.83801679876422,-14.75,60.7244804383128,52.4867503973378,286.495516659053
61.5,3.83785921700232,-14.75,60.7174719703302,52.4808576073733,286.496700965136
62,3.83771226581005,-14.75,60.7104635023475,52.4749648174088,286.497896079117
62.5,3.83757305189928,-14.75,60.7034550343649,52.4690720274443,286.499099856465
63,3.83744108789735,-14.75,60.6964465663822,52.4631792374798,286.500312352679
63.5,3.83731472991369,-14.75,60.6894380983995,52.4572864475153,286.501532013292
64,3.83719366974117,-14.75,60.6824296304169,52.4513936575508,286.502758766069
64.5,3.83707692857869,-14.75,60.6754211624343,52.4455008675863,286.503991567759
65,3.83696428546094,-14.75,60.6684126944516,52.4396080776218,286.505230291448
65.5,3.83685504263428,-14.75,60.6614042264689,52.4337152876573,286.506474089362
66,3.83674848800074,-14.75,60.6543957584863,52.4278224976928,286.507721961238
66.5,3.8366444247233,-14.75,60.6473872905036,52.4219297077284,286.508973654293
67,3.83654334858592,-14.75,60.640378822521,52.4160369177639,286.510230000424
67.5,3.83644448545953,-14.75,60.6333703545383,52.4101441277994,286.511489846943
68,3.83634740553694,-14.75,60.6263618865557,52.4042513378349,286.51275252616
68.5,3.83625200017593,-14.75,60.619353418573,52.3983585478704,286.51401786894
69,3.83615864495717,-14.75,60.6123449505904,52.3924657579059,286.515286442516
69.5,3.83606683165811,-14.75,60.6053364826077,52.3865729679414,286.516557405349
70,3.83597627768216,-14.75,60.5983280146251,52.3806801779769,286.517830300455
70.5,3.83588691686626,-14.75,60.5913195466424,52.3747873880124,286.519105009564
71,3.83579904007443,-14.75,60.5843110786597,52.3688945980479,286.520381928435
71.5,3.83571229122443,-14.75,60.5773026106771,52.3630018080834,286.521660479026
72,3.83562673658391,-14.75,60.5702941426944,52.3571090181189,286.522940676192
72.5,3.83554231030483,-14.75,60.5632856747118,52.3512162281544,286.524222396652
73,3.83545788402574,-14.75,60.5562772067291,52.3453234381899,286.525504117112
73.5,3.83537517472911,-14.75,60.5492687387465,52.3394306482254,286.526787942024
74,3.83529301219836,-14.75,60.5422602707638,52.3335378582609,286.528072437091
74.5,3.83521102336345,-14.75,60.5352518027812,52.3276450682964,286.529357111873
75,3.83513077658769,-14.75,60.5282433347985,52.3217522783319,286.530643589097
75.5,3.83505052981193,-14.75,60.5212348668158,52.3158594883674,286.53193006632
76,3.83497097689772,-14.75,60.5142263988332,52.3099666984029,286.533217106342
76.5,3.83489237097913,-14.75,60.5072179308505,52.3040739084384,286.534504914482
77,3.83481376506053,-14.75,60.5002094628679,52.2981811184739,286.535792722621
77.5,3.83473623213884,-14.75,60.4932009948852,52.2922883285094,286.53708110265
78,3.83465904728857,-14.75,60.4861925269026,52.286395538545,286.538369668196
78.5,3.83458197084114,-14.75,60.4791840589199,52.2805027485805,286.539658256879
79,3.8345060282622,-14.75,60.4721755909373,52.274609958616,286.540947087571
79.5,3.83443008568326,-14.75,60.4651671229546,52.2687171686515,286.542235918263
80,3.83435460218641,-14.75,60.458158654972,52.262824378687,286.543524686697
80.5,3.83427975406705,-14.75,60.4511501869893,52.2569315887225,286.544813368961
81,3.83420490594769,-14.75,60.4441417190067,52.251038798758,286.546102051226
81.5,3.83413078804546,-14.75,60.437133251024,52.2451460087935,286.54739035458
82,3.83405691140091,-14.75,60.4301247830413,52.239253218829,286.548678532744
82.5,3.83398310759927,-14.75,60.4231163150587,52.2333604288645,286.549966642312
83,3.83391009961524,-14.75,60.416107847076,52.2274676389,286.551254002459
83.5,3.83383709163122,-14.75,60.4090993790934,52.2215748489355,286.552541362607
84,3.83376440897679,-14.75,60.4020909111107,52.215682058971,286.553828277027
84.5,3.83369218293197,-14.75,60.3950824431281,52.2097892690065,286.555114565856
85,3.83361995688716,-14.75,60.3880739751454,52.203896479042,286.556400854685
85.5,3.83354850245436,-14.75,60.3810655071628,52.1980036890775,286.557685582846
86,3.83347730762749,-14.75,60.3740570391801,52.192110899113,286.558969785926
86.5,3.83340611280062,-14.75,60.3670485711974,52.1862181091485,286.560253989007
87,3.83333491797375,-14.75,60.3600401032148,52.180325319184,286.561538192087
87.5,3.83326372314688,-14.75,60.3530316352321,52.1744325292195,286.562822395168
88,3.83319301706678,-14.75,60.3460231672495,52.168539739255,286.564105204575
88.5,3.83312300665101,-14.75,60.3390146992668,52.1626469492905,286.565386030279
89,3.83305299623524,-14.75,60.3320062312842,52.156754159326,286.566666855983
89.5,3.83298298581947,-14.75,60.3249977633015,52.1508613693615,286.567947681688
90,3.8329129754037,-14.75,60.3179892953189,52.144968579397,286.569228507392
90.5,3.83284304241921,-14.75,60.3109808273362,52.1390757894325,286.570509025284
91,3.83277403700253,-14.75,60.3039723593535,52.1331829994681,286.571785855822
91.5,3.83270503158586,-14.75,60.2969638913709,52.1272902095036,286.573062686361
92,3.83263602616918,-14.75,60.2899554233882,52.1213974195391,286.574339516899
92.5,3.83256702075251,-14.75,60.2829469554056,52.1155046295746,286.575616347438
93,3.83249801533583,-14.75,60.2759384874229,52.1096118396101,286.576893177976
93.5,3.83242965355594,-14.75,60.2689300194403,52.1037190496456,286.578166685863
94,3.83236151622638,-14.75,60.2619215514576,52.0978262596811,286.579439035069
94.5,3.83229337889681,-14.75,60.254913083475,52.0919334697166,286.580711384274
95,3.83222524156724,-14.75,60.2479046154923,52.0860406797521,286.581983733479
95.5,3.83215710423768,-14.75,60.2408961475097,52.0801478897876,286.583256082684
96,3.83208927627172,-14.75,60.233887679527,52.0742550998231,286.584526460096
96.5,3.83202190122351,-14.75,60.2268792115444,52.0683623098586,286.585793950743
97,3.8319545261753,-14.75,60.2198707435617,52.0624695198941,286.58706144139
97.5,3.83188715112709,-14.75,60.212862275579,52.0565767299296,286.588328932037
98,3.83181977607887,-14.75,60.2058538075964,52.0506839399651,286.589596422684
98.5,3.83175244869781,-14.75,60.1988453396137,52.0447911500006,286.590863552218
99,3.83168575232411,-14.75,60.1918368716311,52.0388983600361,286.592125901417
99.5,3.83161905595041,-14.75,60.1848284036484,52.0330055700716,286.593388250616
100,3.83155235957671,-14.75,60.1778199356658,52.0271127801071,286.594650599816
100.5,3.83148566320301,-14.75,60.1708114676831,52.0212199901426,286.595912949015
101,3.83141896682931,-14.75,60.1638029997005,52.0153272001781,286.597175298215
101.5,3.83135271935678,-14.75,60.1567945317178,52.0094344102137,286.59843369219
102,3.83128663403878,-14.75,60.1497860637352,52.0035416202492,286.599690657439
102.5,3.83122054872078,-14.75,60.1427775957525,51.9976488302847,286.600947622687
103,3.83115446340278,-14.75,60.1357691277699,51.9917560403202,286.602204587935
103.5,3.83108837808478,-14.75,60.1287606597872,51.9858632503557,286.603461553184
104,3.83102251458548,-14.75,60.1217521918046,51.9799704603912,286.6047162981
104.5,3.8309569851641,-14.75,60.1147437238219,51.9740776704267,286.605967699006
105,3.83089145574272,-14.75,60.1077352558393,51.9681848804622,286.607219099911
105.5,3.83082592632135,-14.75,60.1007267878566,51.9622920904977,286.608470500817
106,3.83076039689997,-14.75,60.0937183198739,51.9563993005332,286.609721901723
106.5,3.83069489987518,-14.75,60.0867098518913,51.9505065105687,286.610972940884
107,3.83062988123813,-14.75,60.0797013839086,51.9446137206042,286.612218638304
107.5,3.83056486260107,-14.75,60.072692915926,51.9387209306397,286.613464335724
108,3.83049984396402,-14.75,60.0656844479433,51.9328281406752,286.614710033144
108.5,3.83043482532696,-14.75,60.0586759799606,51.9269353507107,286.615955730564
109,3.83036980668991,-14.75,60.051667511978,51.9210425607462,286.617201427985
109.5,3.83030513276399,-14.75,60.0446590439953,51.9151497707817,286.618442900993
110,3.83024058774724,-14.75,60.0376505760127,51.9092569808172,286.619682794227
110.5,3.8301760427305,-14.75,60.03064210803,51.9033641908527,286.620922687462
111,3.83011149771375,-14.75,60.0236336400474,51.8974714008882,286.622162580697
111.5,3.83004695269701,-14.75,60.0166251720647,51.8915786109237,286.623402473931
112,3.82998266309395,-14.75,60.0096167040821,51.8856858209592,286.624638890488
112.5,3.82991876928025,-14.75,60.0026082360994,51.8797930309947,286.62586991958
113,3.82985487546654,-14.75,59.9955997681167,51.8739002410302,286.627100948671
113.5,3.82979098165284,-14.75,59.9885913001341,51.8680074510658,286.628331977763
114,3.82972708783913,-14.75,59.9815828321514,51.8621146611012,286.629563006855
114.5,3.82966319402543,-14.75,59.9745743641688,51.8562218711368,286.630794035947
115,3.82959930021172,-14.75,59.9675658961861,51.8503290811723,286.632025065038
115.5,3.82953540639802,-14.75,59.9605574282035,51.8444362912078,286.63325609413
116,3.82947151258431,-14.75,59.9535489602208,51.8385435012433,286.634487123222
116.5,3.82940761877061,-14.75,59.9465404922382,51.8326507112788,286.635718152314
117,3.8293437249569,-14.75,59.9395320242555,51.8267579213143,286.636949181405
117.5,3.82928040131999,-14.75,59.9325235562729,51.8208651313498,286.6381715996
118,3.82921729830783,-14.75,59.9255150882902,51.8149723413853,286.639390685886
118.5,3.82915419529566,-14.75,59.9185066203075,51.8090795514208,286.640609772171
119,3.8290910922835,-14.75,59.9114981523249,51.8031867614563,286.641828858457
119.5,3.82902798927133,-14.75,59.9044896843422,51.7972939714918,286.643047944743
120,3.82896488625917,-14.75,59.8974812163596,51.7914011815273,286.644267031029
120.5,3.828901783247,-14.75,59.8904727483769,51.7855083915628,286.645486117314
121,3.82883868023484,-14.75,59.8834642803943,51.7796156015983,286.6467052036
121.5,3.82877557722268,-14.75,59.8764558124116,51.7737228116338,286.647924289886
122,3.82871247421051,-14.75,59.869447344429,51.7678300216693,286.649143376172
122.5,3.82864940705575,-14.75,59.8624388764463,51.7619372317048,286.65036186463
123,3.82858702401012,-14.75,59.8554304084637,51.7560444417403,286.651568947366
123.5,3.82852464096449,-14.75,59.848421940481,51.7501516517758,286.652776030102
124,3.82846225791887,-14.75,59.8414134724983,51.7442588618113,286.653983112838
124.5,3.82839987487324,-14.75,59.8344050045157,51.7383660718468,286.655190195574
125,3.82833749182762,-14.75,59.827396536533,51.7324732818823,286.65639727831
125.5,3.82827510878199,-14.75,59.8203880685504,51.7265804919178,286.657604361046
126,3.82821272573636,-14.75,59.8133796005677,51.7206877019533,286.658811443782
126.5,3.82815034269074,-14.75,59.806371132585,51.7147949119888,286.660018526518
127,3.82808795964511,-14.75,59.7993626646024,51.7089021220243,286.661225609254
