time,voltage,curr_density,SOC,SOC_est,temp
0,3.93987376498711,-29.5,80,68.6938,298
0.5,3.93948901586105,-29.5,79.9859830640347,68.682014420071,298.003287304141
1,3.93913323489971,-29.5,79.9719661280694,68.670228840142,298.006464568246
1.5,3.93879442201774,-29.5,79.9579491921041,68.658443260213,298.009675869591
2,3.93846940100776,-29.5,79.9439322561388,68.646657680284,298.012919213402
2.5,3.93815427089179,-29.5,79.9299153201735,68.634872100355,298.016187968555
3,3.93784927157914,-29.5,79.9158983842082,68.6230865204261,298.019484978583
3.5,3.93755159101817,-29.5,79.9018814482428,68.6113009404971,298.022803989575
4,3.93726165244912,-29.5,79.8878645122775,68.5995153605681,298.026147801107
4.5,3.93697745947565,-29.5,79.8738475763122,68.5877297806391,298.029511096102
5,3.93669997331312,-29.5,79.8598306403469,68.5759442007101,298.032898320133
5.5,3.93642684758376,-29.5,79.8458137043816,68.5641586207811,298.036301980212
6,3.93615832342937,-29.5,79.8317967684163,68.5523730408521,298.039723479991
6.5,3.93589395394449,-29.5,79.817779832451,68.5405874609231,298.043161661934
7,3.93563344474303,-29.5,79.8037628964857,68.5288018809941,298.046615837541
7.5,3.93537707147975,-29.5,79.7897459605204,68.5170163010652,298.050087759905
8,3.93512425030164,-29.5,79.7757290245551,68.5052307211362,298.053575460059
8.5,3.93487447033537,-29.5,79.7617120885898,68.4934451412072,298.057077027799
9,3.93462755921333,-29.5,79.7476951526245,68.4816595612782,298.060591974199
9.5,3.93438335833804,-29.5,79.7336782166592,68.4698739813492,298.064119834787
10,3.9341417958097,-29.5,79.7196612806939,68.4580884014202,298.067660544093
10.5,3.93390442682714,-29.5,79.7056443447285,68.4463028214912,298.071222309476
11,3.93366705784458,-29.5,79.6916274087632,68.4345172415622,298.07478407486
11.5,3.93343309838638,-29.5,79.6776104727979,68.4227316616332,298.078363586051
12,3.9332010202976,-29.5,79.6635935368326,68.4109460817042,298.081952889347
12.5,3.93297004733411,-29.5,79.6495766008673,68.3991605017752,298.085548180804
13,3.93274264489096,-29.5,79.635559664902,68.3873749218462,298.089162819251
13.5,3.9325152424478,-29.5,79.6215427289367,68.3755893419172,298.092777457699
14,3.93229129025418,-29.5,79.6075257929714,68.3638037619882,298.096411503646
14.5,3.93206805326029,-29.5,79.593508857006,68.3520181820593,298.10004957256
15,3.93184638707699,-29.5,79.5794919210407,68.3402326021303,298.103696773888
15.5,3.93162688791894,-29.5,79.5654749850754,68.3284470222013,298.107356573916
16,3.93140742992482,-29.5,79.5514580491101,68.3166614422723,298.111016620146
16.5,3.9311913075952,-29.5,79.5374411131448,68.3048758623433,298.114696617045
17,3.93097518526558,-29.5,79.5234241771795,68.2930902824143,298.118376613943
17.5,3.93076091525039,-29.5,79.5094072412142,68.2813047024853,298.122067982908
18,3.93054785898517,-29.5,79.4953903052489,68.2695191225563,298.12576680355
18.5,3.93033535096814,-29.5,79.4813733692836,68.2577335426273,298.129469074063
19,3.93012509077018,-29.5,79.4673564333183,68.2459479626983,298.133185489061
19.5,3.92991483057221,-29.5,79.4533394973529,68.2341623827693,298.136901904059
20,3.92970658846837,-29.5,79.4393225613876,68.2223768028403,298.140631308069
20.5,3.92949888923065,-29.5,79.4253056254224,68.2105912229114,298.144364206117
21,3.9292920850637,-29.5,79.4112886894571,68.1988056429824,298.148102982334
21.5,3.92908674148277,-29.5,79.3972717534918,68.1870200630534,298.15185135061
22,3.92888139790183,-29.5,79.3832548175264,68.1752344831244,298.155599718887
22.5,3.92867914765779,-29.5,79.3692378815611,68.1634489031954,298.159368897838
23,3.92847698681477,-29.5,79.3552209455958,68.1516633232664,298.163138678242
23.5,3.92827482597175,-29.5,79.3412040096305,68.1398777433374,298.166908458646
24,3.92807266512873,-29.5,79.3271870736652,68.1280921634084,298.17067823905
24.5,3.92787108895094,-29.5,79.3131701376999,68.1163065834795,298.174452060193
25,3.92767268080031,-29.5,79.2991532017346,68.1045210035505,298.178247776211
25.5,3.92747427264967,-29.5,79.2851362657693,68.0927354236215,298.182043492228
26,3.92727586449904,-29.5,79.271119329804,68.0809498436925,298.185839208245
26.5,3.92707745634841,-29.5,79.2571023938386,68.0691642637635,298.189634924262
27,3.9268801577987,-29.5,79.2430854578733,68.0573786838345,298.193438538787
27.5,3.9266850161865,-29.5,79.229068521908,68.0455931039055,298.197257507111
28,3.92648987457431,-29.5,79.2150515859427,68.0338075239765,298.201076475434
28.5,3.92629473296211,-29.5,79.2010346499774,68.0220219440475,298.204895443758
29,3.92609959134992,-29.5,79.1870177140121,68.0102363641185,298.208714412082
29.5,3.92590595552364,-29.5,79.1730007780468,67.9984507841895,298.212544363254
30,3.92571368987966,-29.5,79.1589838420815,67.9866652042605,298.216384308213
30.5,3.92552142423569,-29.5,79.1449669061162,67.9748796243315,298.220224253172
31,3.92532915859171,-29.5,79.1309499701509,67.9630940444025,298.224064198131
31.5,3.92513689294773,-29.5,79.1169330341855,67.9513084644735,298.22790414309
32,3.92494643848743,-29.5,79.1029160982202,67.9395228845446,298.231757568979
32.5,3.9247567329524,-29.5,79.0888991622549,67.9277373046156,298.235616569237
33,3.92456702741737,-29.5,79.0748822262896,67.9159517246866,298.239475569496
33.5,3.92437732188234,-29.5,79.0608652903243,67.9041661447576,298.243334569754
34,3.9241876163473,-29.5,79.046848354359,67.8923805648286,298.247193570013
34.5,3.92399996273606,-29.5,79.0328314183937,67.8805949848996,298.251068090176
35,3.92381255923704,-29.5,79.0188144824284,67.8688094049706,298.254944502084
35.5,3.92362515573802,-29.5,79.0047975464631,67.8570238250416,298.258820913992
36,3.923437752239,-29.5,78.9907806104978,67.8452382451126,298.2626973259
36.5,3.92325050582736,-29.5,78.9767636745324,67.8334526651836,298.266574941309
37,3.92306519014725,-29.5,78.9627467385671,67.8216670852546,298.270467348721
37.5,3.92287987446714,-29.5,78.9487298026018,67.8098815053257,298.274359756134
38,3.92269455878703,-29.5,78.9347128666365,67.7980959253967,298.278252163547
38.5,3.92250924310692,-29.5,78.9206959306712,67.7863103454677,298.282144570959
39,3.92232442231007,-29.5,78.9066789947059,67.7745247655387,298.286040800333
39.5,3.92214101643114,-29.5,78.8926620587406,67.7627391856097,298.289947957051
40,3.9219576105522,-29.5,78.8786451227753,67.7509536056807,298.29385511377
40.5,3.92177420467326,-29.5,78.86462818681,67.7391680257517,298.297762270488
41,3.92159079879432,-29.5,78.8506112508447,67.7273824458227,298.301669427207
41.5,3.92140817331033,-29.5,78.8365943148794,67.7155968658937,298.3055826367
42,3.92122652898012,-29.5,78.8225773789141,67.7038112859647,298.309503456061
42.5,3.92104488464991,-29.5,78.8085604429488,67.6920257060357,298.313424275423
43,3.92086324031971,-29.5,78.7945435069835,67.6802401261068,298.317345094785
43.5,3.9206815959895,-29.5,78.7805265710182,67.6684545461778,298.321265914146
44,3.92050097842448,-29.5,78.7665096350528,67.6566689662488,298.325194708291
44.5,3.92032097192753,-29.5,78.7524926990875,67.6448833863198,298.329128248541
45,3.92014096543058,-29.5,78.7384757631222,67.6330978063908,298.333061788791
45.5,3.91996095893363,-29.5,78.7244588271569,67.6213122264618,298.336995329041
46,3.91978095243667,-29.5,78.7104418911916,67.6095266465328,298.340928869292
46.5,3.91960218953626,-29.5,78.6964249552263,67.5977410666038,298.344872029249
47,3.91942371684243,-29.5,78.682408019261,67.5859554866748,298.348817434067
47.5,3.9192452441486,-29.5,78.6683910832957,67.5741699067458,298.352762838886
48,3.91906677145477,-29.5,78.6543741473303,67.5623843268168,298.356708243705
48.5,3.91888829876094,-29.5,78.640357211365,67.5505987468878,298.360653648523
49,3.91871091471032,-29.5,78.6263402753997,67.5388131669588,298.364607417465
49.5,3.91853353648113,-29.5,78.6123233394344,67.5270275870299,298.368561231134
50,3.97723456339198,7.17635751038024,78.5983180212353,67.5152517754348,298.372513738628
50.5,3.98977083197629,14.75,78.6053242318659,67.5211426673951,298.370763821927
51,3.99010919422471,14.75,78.6123326998485,67.5270354573596,298.369262987265
51.5,3.99042426881068,14.75,78.6193411678312,67.5329282473241,298.367764495762
52,3.99072049323796,14.75,78.6263496358138,67.5388210372886,298.366270943103
52.5,3.99100272711293,14.75,78.6333581037965,67.5447138272531,298.364783210824
53,3.99127159901015,14.75,78.6403665717791,67.5506066172176,298.363302974813
53.5,3.99152980703126,14.75,78.6473750397618,67.5564994071821,298.361830397686
54,3.99177815622226,14.75,78.6543835077444,67.5623921971466,298.360366293657
54.5,3.99201757586413,14.75,78.661391975727,67.5682849871111,298.358911366639
55,3.99224989509036,14.75,78.6684004437097,67.5741777770756,298.357464653208
55.5,3.99247480886966,14.75,78.6754089116924,67.5800705670401,298.356027834644
56,3.99269363309865,14.75,78.682417379675,67.5859633570046,298.354600076373
56.5,3.99290690958609,14.75,78.6894258476577,67.5918561469691,298.35318135793
57,3.99311506074064,14.75,78.6964343156403,67.5977489369335,298.351771718014
57.5,3.99331846182048,14.75,78.7034427836229,67.603641726898,298.350371177834
58,3.99351738474163,14.75,78.7104512516056,67.6095345168625,298.348979879057
58.5,3.99371147064141,14.75,78.7174597195883,67.615427306827,298.347599448106
59,3.99390183989975,14.75,78.724468187571,67.6213200967915,298.346228052133
59.5,3.9940887180391,14.75,78.7314766555536,67.627212886756,298.344865642187
60,3.95701692767327,-8.58294940158369,78.7384784715865,67.6331000836946,298.343511948332
60.5,3.94697279876325,-14.75,78.7314734450319,67.6272101873173,298.344373392606
61,3.94680036261447,-14.75,78.7244649770492,67.6213173973528,298.345102858396
61.5,3.94664172784144,-14.75,78.7174565090666,67.6154246073883,298.345843649433
62,3.94649359131524,-14.75,78.7104480410839,67.6095318174238,298.346594636157
62.5,3.94635326012827,-14.75,78.7034395731012,67.6036390274593,298.347354137506
63,3.9462195741204,-14.75,78.6964311051186,67.5977462374948,298.348121625382
63.5,3.94609179334045,-14.75,78.689422637136,67.5918534475303,298.348896832433
64,3.9459684167888,-14.75,78.6824141691533,67.5859606575658,298.349678238473
64.5,3.94584966563257,-14.75,78.6754057011707,67.5800678676013,298.350466603328
65,3.94573486000928,-14.75,78.668397233188,67.5741750776368,298.351261304925
65.5,3.94562226146515,-14.75,78.6613887652053,67.5682822876723,298.352059703274
66,3.94551289314049,-14.75,78.6543802972227,67.5623894977078,298.352863699948
66.5,3.94540629165831,-14.75,78.64737182924,67.5564967077433,298.353672796597
67,3.94530156969377,-14.75,78.6403633612574,67.5506039177788,298.354485475511
67.5,3.94519864067539,-14.75,78.6333548932747,67.5447111278143,298.355301636511
68,3.94509831155906,-14.75,78.6263464252921,67.5388183378498,298.356123084983
68.5,3.94499935490758,-14.75,78.6193379573094,67.5329255478853,298.356947445458
69,3.94490171902336,-14.75,78.6123294893268,67.5270327579208,298.357774638488
69.5,3.94480571865683,-14.75,78.6053210213441,67.5211399679563,298.358605425454
70,3.94471115353615,-14.75,78.5983125533614,67.5152471779918,298.359439472814
70.5,3.94461759883728,-14.75,78.5913040853788,67.5093543880273,298.36027586452
71,3.94452503299242,-14.75,78.5842956173961,67.5034615980628,298.361114578847
71.5,3.94443391663466,-14.75,78.5772871494135,67.4975688080984,298.361956786406
72,3.94434395165017,-14.75,78.5702786814308,67.4916760181339,298.362801873143
72.5,3.94425478300439,-14.75,78.5632702134482,67.4857832281694,298.363648952216
73,3.94416561435862,-14.75,78.5562617454655,67.4798904382049,298.36449603129
73.5,3.94407818148653,-14.75,78.5492532774829,67.4739976482404,298.365347574528
74,3.94399122508021,-14.75,78.5422448095002,67.4681048582759,298.366200343169
74.5,3.94390426867389,-14.75,78.5352363415176,67.4622120683114,298.36705311181
75,3.94381914013849,-14.75,78.5282278735349,67.4563192783469,298.367910728021
75.5,3.94373404634575,-14.75,78.5212194055523,67.4504264883824,298.368768436371
76,3.94364923566192,-14.75,78.5142109375696,67.4445336984179,298.369626920386
76.5,3.94356573172697,-14.75,78.507202469587,67.4386409084534,298.370488984643
77,3.94348222779202,-14.75,78.5001940016043,67.4327481184889,298.3713510489
77.5,3.94339923858034,-14.75,78.4931855336217,67.4268553285244,298.372214558563
78,3.94331710798665,-14.75,78.486177065639,67.4209625385599,298.37308047933
78.5,3.94323497739296,-14.75,78.4791685976563,67.4150697485954,298.373946400096
79,3.94315353130697,-14.75,78.4721601296737,67.4091769586309,298.374814263037
79.5,3.94307259840838,-14.75,78.465151661691,67.4032841686664,298.37568358206
80,3.94299166550979,-14.75,78.4581431937083,67.3973913787019,298.376552901083
80.5,3.94291154142377,-14.75,78.4511347257257,67.3914985887374,298.377424526493
81,3.94283166133027,-14.75,78.444126257743,67.3856057987729,298.378296847665
81.5,3.94275178123677,-14.75,78.4371177897604,67.3797130088084,298.379169168838
82,3.9426728011829,-14.75,78.4301093217777,67.3738202188439,298.38004405882
82.5,3.94259385380215,-14.75,78.4231008537951,67.3679274288795,298.380919042054
83,3.94251504105821,-14.75,78.4160923858125,67.362034638915,298.381794411158
83.5,3.94243692634026,-14.75,78.4090839178298,67.3561418489505,298.382671780807
84,3.9423588116223,-14.75,78.4020754498471,67.350249058986,298.383549150456
84.5,3.94228096515881,-14.75,78.3950669818645,67.3443562690215,298.384427289818
85,3.94220359887952,-14.75,78.3880585138818,67.338463479057,298.385306806991
85.5,3.94212623260023,-14.75,78.3810500458991,67.3325706890925,298.386186324164
86,3.94204941337376,-14.75,78.3740415779165,67.326677899128,298.387067392663
86.5,3.94197303252087,-14.75,78.3670331099338,67.3207851091635,298.387949704296
87,3.94189665166798,-14.75,78.3600246419512,67.314892319199,298.38883201593
87.5,3.94182027081509,-14.75,78.3530161739685,67.3089995292345,298.389714327564
88,3.94174388996221,-14.75,78.3460077059859,67.30310673927,298.390596639197
88.5,3.94166750910932,-14.75,78.3389992380032,67.2972139493055,298.391478950831
89,3.94159220008036,-14.75,78.3319907700206,67.291321159341,298.392364178155
89.5,3.94151694913757,-14.75,78.3249823020379,67.2854283693765,298.393249563492
90,3.94144169819477,-14.75,78.3179738340553,67.279535579412,298.394134948829
90.5,3.94136644725197,-14.75,78.3109653660726,67.2736427894475,298.395020334166
91,3.94129119630917,-14.75,78.30395689809,67.267749999483,298.395905719503
91.5,3.94121627313708,-14.75,78.2969484301073,67.2618572095185,298.396791931739
92,3.94114198047271,-14.75,78.2899399621246,67.255964419554,298.397679734618
92.5,3.94106768780834,-14.75,78.282931494142,67.2500716295895,298.398567537497
93,3.94099339514397,-14.75,78.2759230261593,67.244178839625,298.399455340376
93.5,3.9409191024796,-14.75,78.2689145581767,67.2382860496605,298.400343143254
94,3.94084480981523,-14.75,78.261906090194,67.2323932596961,298.401230946133
94.5,3.94077112706047,-14.75,78.2548976222114,67.2265004697315,298.402120159615
95,3.94069766365206,-14.75,78.2478891542287,67.2206076797671,298.403009880403
95.5,3.94062420024364,-14.75,78.2408806862461,67.2147148898026,298.40389960119
96,3.94055073683523,-14.75,78.2338722182634,67.208822099838,298.404789321978
96.5,3.94047727342681,-14.75,78.2268637502807,67.2029293098736,298.405679042766
97,3.9404039043045,-14.75,78.2198552822981,67.197036519909,298.406568961436
97.5,3.94033117214106,-14.75,78.2128468143154,67.1911437299446,298.407460216926
98,3.94025843997762,-14.75,78.2058383463328,67.1852509399801,298.408351472415
98.5,3.94018570781418,-14.75,78.1988298783501,67.1793581500156,298.409242727904
99,3.94011297565074,-14.75,78.1918214103675,67.1734653600511,298.410133983394
99.5,3.9400402434873,-14.75,78.1848129423848,67.1675725700866,298.411025238883
100,3.93996785368799,-14.75,78.1778044744022,67.1616797801221,298.411917125911
100.5,3.93989577690723,-14.75,78.1707960064195,67.1557869901576,298.412809590347
101,3.93982370012648,-14.75,78.1637875384369,67.1498942001931,298.413702054783
101.5,3.93975162334573,-14.75,78.1567790704542,67.1440014102286,298.414594519218
102,3.93967954656497,-14.75,78.1497706024716,67.1381086202641,298.415486983654
102.5,3.93960746978422,-14.75,78.1427621344889,67.1322158302996,298.416379448089
103,3.93953593844332,-14.75,78.1357536665063,67.1263230403351,298.417272746877
103.5,3.93946445722683,-14.75,78.1287451985236,67.1204302503706,298.418166122339
104,3.93939297601034,-14.75,78.121736730541,67.1145374604061,298.419059497801
104.5,3.93932149479386,-14.75,78.1147282625583,67.1086446704416,298.419952873263
105,3.93925001357737,-14.75,78.1077197945756,67.1027518804771,298.420846248725
105.5,3.93917870187479,-14.75,78.100711326593,67.0968590905127,298.421739824117
106,3.93910776873961,-14.75,78.0937028586103,67.0909663005481,298.422633846002
106.5,3.93903683560442,-14.75,78.0866943906277,67.0850735105836,298.423527867887
107,3.93896590246923,-14.75,78.079685922645,67.0791807206191,298.424421889773
107.5,3.93889496933405,-14.75,78.0726774546624,67.0732879306546,298.425315911658
108,3.93882403619886,-14.75,78.0656689866797,67.0673951406901,298.426209933543
108.5,3.93875346166916,-14.75,78.058660518697,67.0615023507257,298.427104245892
109,3.93868303883367,-14.75,78.0516520507144,67.0556095607612,298.427998681111
109.5,3.93861261599818,-14.75,78.0446435827317,67.0497167707967,298.428893116329
110,3.9385421931627,-14.75,78.0376351147491,67.0438239808322,298.429787551548
110.5,3.93847177032721,-14.75,78.0306266467665,67.0379311908677,298.430681986766
111,3.93840139366315,-14.75,78.0236181787838,67.0320384009032,298.431576443326
111.5,3.93833145085991,-14.75,78.0166097108011,67.0261456109387,298.43247110042
112,3.93826150805667,-14.75,78.0096012428185,67.0202528209742,298.433365757515
112.5,3.93819156525343,-14.75,78.0025927748358,67.0143600310097,298.434260414609
113,3.93812162245019,-14.75,77.9955843068532,67.0084672410452,298.435155071703
113.5,3.93805167964695,-14.75,77.9885758388705,67.0025744510807,298.436049728798
114,3.93798206650745,-14.75,77.9815673708878,66.9966816611162,298.436944366937
114.5,3.93791279699165,-14.75,77.9745589029052,66.9907888711517,298.437838985319
115,3.93784352747585,-14.75,77.9675504349225,66.9848960811872,298.4387336037
115.5,3.93777425796005,-14.75,77.9605419669399,66.9790032912227,298.439628222081
116,3.93770498844425,-14.75,77.9535334989572,66.9731105012582,298.440522840463
116.5,3.93763571892844,-14.75,77.9465250309746,66.9672177112937,298.441417458844
117,3.93756644941264,-14.75,77.9395165629919,66.9613249213292,298.442312077225
117.5,3.93749717989684,-14.75,77.9325080950093,66.9554321313647,298.443206695607
118,3.93742791038104,-14.75,77.9254996270266,66.9495393414003,298.444101313988
118.5,3.93735864086524,-14.75,77.918491159044,66.9436465514357,298.44499593237
119,3.93728937134944,-14.75,77.9114826910613,66.9377537614713,298.445890550751
119.5,3.93722033349178,-14.75,77.9044742230787,66.9318609715068,298.446785025388
120,3.93715190170557,-14.75,77.897465755096,66.9259681815423,298.447679123957
120.5,3.93708346991936,-14.75,77.8904572871133,66.9200753915778,298.448573222525
121,3.93701503813315,-14.75,77.8834488191307,66.9141826016133,298.449467321094
121.5,3.93694660634694,-14.75,77.876440351148,66.9082898116488,298.450361419662
122,3.93687817456073,-14.75,77.8694318831654,66.9023970216843,298.451255518231
122.5,3.93680974277453,-14.75,77.8624234151827,66.8965042317198,298.4521496168
123,3.93674131098832,-14.75,77.8554149472001,66.8906114417553,298.453043715368
123.5,3.93667287920211,-14.75,77.8484064792174,66.8847186517908,298.453937813937
124,3.9366044474159,-14.75,77.8413980112348,66.8788258618263,298.454831912506
124.5,3.93653601562969,-14.75,77.8343895432521,66.8729330718618,298.455726011074
125,3.93646763351871,-14.75,77.8273810752694,66.8670402818973,298.45662004374
125.5,3.93639998489667,-14.75,77.8203726072868,66.8611474919328,298.457513103308
126,3.93633233627464,-14.75,77.8133641393041,66.8552547019683,298.458406162876
126.5,3.9362646876526,-14.75,77.8063556713215,66.8493619120038,298.459299222444
127,3.93619703903057,-14.75,77.7993472033388,66.8434691220393,298.460192282012
