time,voltage,curr_density,SOC,SOC_est,temp
0,3.86289382383685,-29.5,67,57.76327,309
0.5,3.86254505911181,-29.5,66.9859830640347,57.751484420071,309.004666249443
1,3.86222652986574,-29.5,66.9719661280694,57.739698840142,309.00915455614
1.5,3.86192557836501,-29.5,66.9579491921041,57.727913260213,309.013669021244
2,3.86163838479228,-29.5,66.9439322561387,57.716127680284,309.018206965709
2.5,3.86136259763599,-29.5,66.9299153201734,57.704342100355,309.022766339759
3,3.86109513891682,-29.5,66.9158983842081,57.692556520426,309.027342563405
3.5,3.8608362288985,-29.5,66.9018814482428,57.6807709404971,309.031937180493
4,3.86058410056611,-29.5,66.8878645122775,57.6689853605681,309.036547181305
4.5,3.86033770541308,-29.5,66.8738475763122,57.6571997806391,309.041170754861
5,3.86009745169649,-29.5,66.8598306403469,57.6454142007101,309.045809463255
5.5,3.85986200008548,-29.5,66.8458137043816,57.6336286207811,309.05046036005
6,3.85963092026816,-29.5,66.8317967684163,57.6218430408521,309.055122678872
6.5,3.85940292581363,-29.5,66.817779832451,57.6100574609231,309.059793132808
7,3.85917966034944,-29.5,66.8037628964857,57.5982718809941,309.064476306905
7.5,3.85895974250985,-29.5,66.7897459605203,57.5864863010651,309.069168696859
8,3.85874223682313,-29.5,66.7757290245551,57.5747007211361,309.073867760863
8.5,3.85852851272744,-29.5,66.7617120885898,57.5629151412071,309.078577410592
9,3.85831745412426,-29.5,66.7476951526244,57.5511295612782,309.08329460259
9.5,3.85810835124527,-29.5,66.7336782166591,57.5393439813492,309.088017335675
10,3.85790236859258,-29.5,66.7196612806938,57.5275584014202,309.092748937674
10.5,3.85769855946078,-29.5,66.7056443447285,57.5157728214912,309.097486709826
11,3.85749637234657,-29.5,66.6916274087632,57.5039872415622,309.102229081456
11.5,3.85729681315778,-29.5,66.6776104727979,57.4922016616332,309.10697888303
12,3.85709906157119,-29.5,66.6635935368326,57.4804160817042,309.111733758343
12.5,3.85690268126601,-29.5,66.6495766008673,57.4686305017752,309.116492471029
13,3.85670855505452,-29.5,66.635559664902,57.4568449218462,309.121257436517
13.5,3.85651666628013,-29.5,66.6215427289367,57.4450593419172,309.126028465415
14,3.85632608184736,-29.5,66.6075257929714,57.4332737619883,309.130803029054
14.5,3.85613549741458,-29.5,66.5935088570061,57.4214881820593,309.135577592693
15,3.85594752923674,-29.5,66.5794919210408,57.4097026021303,309.140358974422
15.5,3.85576114094625,-29.5,66.5654749850754,57.3979170222013,309.145144473415
16,3.85557475265576,-29.5,66.5514580491101,57.3861314422723,309.149929972408
16.5,3.85539062458199,-29.5,66.5374411131448,57.3743458623433,309.15472100694
17,3.85520790992292,-29.5,66.5234241771795,57.3625602824143,309.159515503094
17.5,3.85502519526385,-29.5,66.5094072412142,57.3507747024853,309.164309999247
18,3.85484445354537,-29.5,66.4953903052489,57.3389891225563,309.169108953669
18.5,3.85466498910581,-29.5,66.4813733692836,57.3272035426273,309.173910794369
19,3.85448552466625,-29.5,66.4673564333183,57.3154179626983,309.178712635068
19.5,3.85430779747359,-29.5,66.453339497353,57.3036323827693,309.183518013807
20,3.85413123433902,-29.5,66.4393225613876,57.2918468028403,309.188325763241
20.5,3.85395467120446,-29.5,66.4253056254223,57.2800612229113,309.193133512675
21,3.85377964947366,-29.5,66.411288689457,57.2682756429824,309.197944010794
21.5,3.85360569647783,-29.5,66.3972717534917,57.2564900630534,309.20275641472
22,3.853431743482,-29.5,66.3832548175264,57.2447044831244,309.207568818645
22.5,3.85325916758963,-29.5,66.3692378815611,57.2329189031954,309.212383291382
23,3.8530875794981,-29.5,66.3552209455958,57.2211333232664,309.217199248084
23.5,3.85291599140657,-29.5,66.3412040096305,57.2093477433374,309.222015204786
24,3.85274564203818,-29.5,66.3271870736652,57.1975621634084,309.226832653687
24.5,3.85257621173069,-29.5,66.3131701376999,57.1857765834794,309.231651209713
25,3.8524067814232,-29.5,66.2991532017346,57.1739910035504,309.236469765739
25.5,3.85223847244544,-29.5,66.2851362657692,57.1622054236214,309.24128931048
26,3.85207102386204,-29.5,66.2711193298039,57.1504198436924,309.246109613861
26.5,3.85190357527864,-29.5,66.2571023938386,57.1386342637634,309.250929917242
27,3.8517371477144,-29.5,66.2430854578733,57.1268486838344,309.255750773119
27.5,3.8515715302303,-29.5,66.229068521908,57.1150631039055,309.260572067349
28,3.85140591274621,-29.5,66.2150515859427,57.1032775239765,309.265393361579
28.5,3.85124166740362,-29.5,66.2010346499774,57.0914919440475,309.270214756998
29,3.85107854761701,-29.5,66.1870177140121,57.0797063641185,309.275036235422
29.5,3.85091542783041,-29.5,66.1730007780468,57.0679207841895,309.279857713846
30,3.8507523080438,-29.5,66.1589838420815,57.0561352042605,309.28467919227
30.5,3.85058918825719,-29.5,66.1449669061161,57.0443496243315,309.289500670694
31,3.85042606847058,-29.5,66.1309499701508,57.0325640444025,309.294322149118
31.5,3.85026454358983,-29.5,66.1169330341855,57.0207784644735,309.299142765878
32,3.85010441674134,-29.5,66.1029160982202,57.0089928845445,309.303962627337
32.5,3.84994428989285,-29.5,66.0888991622549,56.9972073046155,309.308782488796
33,3.84978416304435,-29.5,66.0748822262896,56.9854217246865,309.313602350254
33.5,3.84962403619586,-29.5,66.0608652903243,56.9736361447576,309.318422211713
34,3.84946390934736,-29.5,66.046848354359,56.9618505648286,309.323242073172
34.5,3.84930516358457,-29.5,66.0328314183937,56.9500649848996,309.32806013473
35,3.84914771109847,-29.5,66.0188144824283,56.9382794049706,309.332876510823
35.5,3.84899025861238,-29.5,66.004797546463,56.9264938250416,309.337692886916
36,3.84883280612628,-29.5,65.9907806104977,56.9147082451126,309.34250926301
36.5,3.84867535364019,-29.5,65.9767636745324,56.9029226651836,309.347325639103
37,3.84851790115409,-29.5,65.9627467385671,56.8911370852546,309.352142015197
37.5,3.84836166401248,-29.5,65.9487298026018,56.8793515053256,309.356955867346
38,3.84820664248796,-29.5,65.9347128666365,56.8675659253966,309.361767194986
38.5,3.84805162096344,-29.5,65.9206959306712,56.8557803454677,309.366578522625
39,3.84789659943892,-29.5,65.9066789947059,56.8439947655387,309.371389850265
39.5,3.8477415779144,-29.5,65.8926620587406,56.8322091856097,309.376201177904
40,3.84758655638988,-29.5,65.8786451227753,56.8204236056807,309.381012505544
40.5,3.8474326190229,-29.5,65.86462818681,56.8086380257517,309.38582075574
41,3.84727983994401,-29.5,65.8506112508447,56.7968524458227,309.390625718068
41.5,3.84712706086511,-29.5,65.8365943148793,56.7850668658937,309.395430680397
42,3.84697428178621,-29.5,65.822577378914,56.7732812859647,309.400235642725
42.5,3.84682150270732,-29.5,65.8085604429487,56.7614957060357,309.405040605054
43,3.84666872362842,-29.5,65.7945435069834,56.7497101261067,309.409845567383
43.5,3.8465169226256,-29.5,65.7805265710181,56.7379245461777,309.414647009426
44,3.8463662379362,-29.5,65.7665096350528,56.7261389662488,309.419444433642
44.5,3.8462155532468,-29.5,65.7524926990875,56.7143533863198,309.424241857857
45,3.8460648685574,-29.5,65.7384757631222,56.7025678063908,309.429039282073
45.5,3.845914183868,-29.5,65.7244588271569,56.6907822264618,309.433836706289
46,3.8457634991786,-29.5,65.7104418911916,56.6789966465328,309.438634130504
46.5,3.84561370435238,-29.5,65.6964249552263,56.6672110666038,309.443427673161
47,3.84546499483105,-29.5,65.682408019261,56.6554254866748,309.448216481749
47.5,3.84531628530973,-29.5,65.6683910832957,56.6436399067458,309.453005290337
48,3.8451675757884,-29.5,65.6543741473304,56.6318543268168,309.457794098925
48.5,3.84501886626707,-29.5,65.6403572113651,56.6200687468879,309.462582907513
49,3.84487015674574,-29.5,65.6263402753998,56.6082831669589,309.467371716101
49.5,3.84472189716254,-29.5,65.6123233394344,56.5964975870299,309.472158328646
50,3.84457442442939,-29.5,65.5983064034691,56.5847120071009,309.476941025158
50.5,3.90889021186982,14.75,65.6053078629838,56.5905989042754,309.474074104261
51,3.90919800431732,14.75,65.6123163309665,56.5964916942399,309.471540544165
51.5,3.90948202087195,14.75,65.6193247989491,56.6023844842044,309.469011963531
52,3.90974734392998,14.75,65.6263332669318,56.6082772741689,309.466490925286
52.5,3.90999890790233,14.75,65.6333417349144,56.6141700641334,309.46397787442
53,3.91023767694037,14.75,65.6403502028971,56.6200628540979,309.461474591719
53.5,3.91046615126912,14.75,65.6473586708797,56.6259556440624,309.458981085127
54,3.91068539030749,14.75,65.6543671388624,56.6318484340269,309.456498180427
54.5,3.91089654489672,14.75,65.661375606845,56.6377412239914,309.454026059201
55,3.91109943953924,14.75,65.6683840748277,56.6436340139559,309.451566787084
55.5,3.91129747343258,14.75,65.6753925428103,56.6495268039204,309.449116131114
56,3.91148968543097,14.75,65.682401010793,56.6554195938849,309.446676551254
56.5,3.91167676905486,14.75,65.6894094787757,56.6613123838494,309.444247760889
57,3.91185798347882,14.75,65.6964179467583,56.6672051738139,309.441832818021
57.5,3.91203507876491,14.75,65.703426414741,56.6730979637784,309.439428628552
58,3.91220832990629,14.75,65.7104348827236,56.6789907537429,309.437035166272
58.5,3.91237799022699,14.75,65.7174433507063,56.6848835437074,309.434652396504
59,3.91254429244022,14.75,65.724451818689,56.6907763336719,309.432280281105
59.5,3.91270699009923,14.75,65.7314602866716,56.6966691236363,309.429920501358
60,3.87698700409942,-10.2309663520907,65.7384616328822,56.7025559255436,309.427573327143
60.5,3.87031489550558,-14.75,65.7314551902084,56.6966648384791,309.428905769412
61,3.8701593562286,-14.75,65.7244467222257,56.6907720485146,309.430045315643
61.5,3.87001815702182,-14.75,65.7174382542431,56.6848792585501,309.431193941863
62,3.86988775211273,-14.75,65.7104297862604,56.6789864685856,309.43235047186
62.5,3.86976599132235,-14.75,65.7034213182777,56.6730936786211,309.433514016949
63,3.86965127133739,-14.75,65.6964128502951,56.6672008886566,309.434683739712
63.5,3.86954201260309,-14.75,65.6894043823124,56.6613080986921,309.435858484633
64,3.86943746641248,-14.75,65.6823959143298,56.6554153087276,309.437037769547
64.5,3.8693369650583,-14.75,65.6753874463471,56.6495225187631,309.438221088032
65,3.86924000109288,-14.75,65.6683789783645,56.6436297287986,309.439408009605
65.5,3.86914647295691,-14.75,65.6613705103818,56.6377369388342,309.44059849419
66,3.86905562696383,-14.75,65.6543620423992,56.6318441488697,309.441791769231
66.5,3.86896719601999,-14.75,65.6473535744165,56.6259513589052,309.442987530839
67,3.8688809415227,-14.75,65.6403451064339,56.6200585689406,309.444185514528
67.5,3.86879724016351,-14.75,65.6333366384512,56.6141657789762,309.445386055591
68,3.86871431017519,-14.75,65.6263281704686,56.6082729890117,309.446587354208
68.5,3.86863396583364,-14.75,65.6193197024859,56.6023801990472,309.447791095377
69,3.86855455113846,-14.75,65.6123112345033,56.5964874090827,309.448995649126
69.5,3.86847661696729,-14.75,65.6053027665206,56.5905946191182,309.450201496959
70,3.86840013033618,-14.75,65.598294298538,56.5847018291537,309.451408477316
70.5,3.86832428700327,-14.75,65.5912858305553,56.5788090391892,309.452615960975
71,3.86825026826547,-14.75,65.5842773625726,56.5729162492247,309.453824661798
71.5,3.86817674194934,-14.75,65.57726889459,56.5670234592602,309.455033625145
72,3.86810433042588,-14.75,65.5702604266073,56.5611306692957,309.456243182225
72.5,3.86803278828999,-14.75,65.5632519586247,56.5552378793312,309.457453071608
73,3.86796179699437,-14.75,65.556243490642,56.5493450893667,309.458663171537
73.5,3.86789196681424,-14.75,65.5492350226593,56.5434522994022,309.45987352827
74,3.86782260887593,-14.75,65.5422265546767,56.5375595094377,309.461083891671
74.5,3.86775452124805,-14.75,65.535218086694,56.5316667194732,309.462294199931
75,3.86768643362017,-14.75,65.5282096187114,56.5257739295087,309.463504508191
75.5,3.86761834599229,-14.75,65.5212011507287,56.5198811395442,309.464714816451
76,3.86755180139289,-14.75,65.5141926827461,56.5139883495797,309.465924487789
76.5,3.86748555382526,-14.75,65.5071842147634,56.5080955596152,309.46713403652
77,3.86741930625764,-14.75,65.5001757467808,56.5022027696507,309.468343585251
77.5,3.86735374214165,-14.75,65.4931672787981,56.4963099796862,309.469552476769
78,3.86728900734073,-14.75,65.4861588108155,56.4904171897217,309.470760570811
78.5,3.86722427253981,-14.75,65.4791503428328,56.4845243997572,309.471968664853
79,3.86715961979509,-14.75,65.4721418748502,56.4786316097927,309.473176627735
79.5,3.86709614733118,-14.75,65.4651334068675,56.4727388198283,309.474382704045
80,3.86703267486726,-14.75,65.4581249388848,56.4668460298638,309.475588780354
80.5,3.86696920240335,-14.75,65.4511164709022,56.4609532398993,309.476794856664
81,3.86690645435912,-14.75,65.4441080029195,56.4550604499348,309.477999275931
81.5,3.86684405001798,-14.75,65.4370995349369,56.4491676599703,309.479202909011
82,3.86678164567684,-14.75,65.4300910669542,56.4432748700058,309.480406542091
82.5,3.86671950776706,-14.75,65.4230825989716,56.4373820800413,309.481609361818
83,3.86665801764091,-14.75,65.4160741309889,56.4314892900768,309.482810204016
83.5,3.86659652751476,-14.75,65.4090656630063,56.4255965001123,309.484011046213
84,3.86653503738861,-14.75,65.4020571950236,56.4197037101478,309.485211888411
84.5,3.86647426177336,-14.75,65.395048727041,56.4138109201833,309.486409943897
85,3.86641356147093,-14.75,65.3880402590583,56.4079181302188,309.48760770565
85.5,3.86635286116849,-14.75,65.3810317910757,56.4020253402543,309.488805467403
86,3.86629251778184,-14.75,65.374023323093,56.3961325502898,309.490001512141
86.5,3.86623250669194,-14.75,65.3670148551103,56.3902397603253,309.4911959583
87,3.86617249560204,-14.75,65.3600063871277,56.3843469703608,309.492390404458
87.5,3.86611256420663,-14.75,65.352997919145,56.3784541803963,309.493584390879
88,3.86605316112592,-14.75,65.3459894511624,56.3725613904318,309.494775329583
88.5,3.86599375804521,-14.75,65.3389809831797,56.3666686004673,309.495966268287
89,3.8659343549645,-14.75,65.3319725151971,56.3607758105029,309.497157206991
89.5,3.86587553705422,-14.75,65.3249640472144,56.3548830205383,309.498343991078
90,3.86581692018782,-14.75,65.3179555792318,56.3489902305739,309.499529347786
90.5,3.86575830332143,-14.75,65.3109471112491,56.3430974406094,309.500714704494
91,3.86569968645503,-14.75,65.3039386432665,56.3372046506449,309.501900061201
91.5,3.86564106958864,-14.75,65.2969301752838,56.3313118606804,309.503085417909
92,3.86558245272224,-14.75,65.2899217073011,56.3254190707159,309.504270774617
92.5,3.86552383585584,-14.75,65.2829132393185,56.3195262807514,309.505456131325
93,3.86546608270424,-14.75,65.2759047713358,56.3136334907869,309.506633828838
93.5,3.86540835560765,-14.75,65.2688963033532,56.3077407008224,309.507811295303
94,3.86535062851106,-14.75,65.2618878353705,56.3018479108579,309.508988761768
94.5,3.86529290141447,-14.75,65.2548793673879,56.2959551208934,309.510166228232
95,3.86523517431788,-14.75,65.2478708994052,56.2900623309289,309.511343694697
95.5,3.86517744722129,-14.75,65.2408624314226,56.2841695409644,309.512521161161
96,3.8651198678986,-14.75,65.2338539634399,56.2782767509999,309.513696998078
96.5,3.86506289036952,-14.75,65.2268454954573,56.2723839610354,309.514866198834
97,3.86500591284043,-14.75,65.2198370274746,56.2664911710709,309.51603539959
97.5,3.86494893531134,-14.75,65.2128285594919,56.2605983811064,309.517204600345
98,3.86489195778225,-14.75,65.2058200915093,56.2547055911419,309.518373801101
98.5,3.86483498025316,-14.75,65.1988116235266,56.2488128011774,309.519543001857
99,3.86477800272408,-14.75,65.191803155544,56.2429200112129,309.520712202613
99.5,3.86472130108474,-14.75,65.1847946875613,56.2370272212484,309.521877803395
100,3.86466497489344,-14.75,65.1777862195787,56.2311344312839,309.523038505107
100.5,3.86460864870215,-14.75,65.170777751596,56.2252416413195,309.524199206819
101,3.86455232251085,-14.75,65.1637692836134,56.219348851355,309.525359908531
101.5,3.86449599631956,-14.75,65.1567608156307,56.2134560613905,309.526520610243
102,3.86443967012826,-14.75,65.1497523476481,56.207563271426,309.527681311956
102.5,3.86438334393697,-14.75,65.1427438796654,56.2016704814615,309.528842013668
103,3.86432739676555,-14.75,65.1357354116828,56.195777691497,309.529997104387
103.5,3.8642716536796,-14.75,65.1287269437001,56.1898849015325,309.531149173834
104,3.86421591059365,-14.75,65.1217184757174,56.183992111568,309.532301243281
104.5,3.8641601675077,-14.75,65.1147100077348,56.1780993216035,309.533453312728
105,3.86410442442174,-14.75,65.1077015397521,56.172206531639,309.534605382175
105.5,3.86404868133579,-14.75,65.1006930717695,56.1663137416745,309.535757451621
106,3.86399293824984,-14.75,65.0936846037868,56.16042095171,309.536909521068
106.5,3.86393766326465,-14.75,65.0866761358042,56.1545281617455,309.538053912595
107,3.8638824542776,-14.75,65.0796676678215,56.148635371781,309.539197221602
107.5,3.86382724529056,-14.75,65.0726591998389,56.1427425818165,309.540340530609
108,3.86377203630351,-14.75,65.0656507318562,56.136849791852,309.541483839615
108.5,3.86371682731647,-14.75,65.0586422638736,56.1309570018875,309.542627148622
109,3.86366161832943,-14.75,65.0516337958909,56.125064211923,309.543770457629
109.5,3.86360646040444,-14.75,65.0446253279083,56.1191714219585,309.544912852942
110,3.86355174784376,-14.75,65.0376168599256,56.113278631994,309.546047279005
110.5,3.86349703528308,-14.75,65.0306083919429,56.1073858420296,309.547181705068
111,3.8634423227224,-14.75,65.0235999239603,56.1014930520651,309.548316131132
111.5,3.86338761016172,-14.75,65.0165914559776,56.0956002621005,309.549450557195
112,3.86333289760104,-14.75,65.009582987995,56.0897074721361,309.550584983258
112.5,3.86327818504037,-14.75,65.0025745200123,56.0838146821715,309.551719409321
113,3.86322362618486,-14.75,64.9955660520297,56.0779218922071,309.552850876335
113.5,3.86316938040496,-14.75,64.988557584047,56.0720291022426,309.553976316188
114,3.86311513462505,-14.75,64.9815491160643,56.0661363122781,309.555101756041
114.5,3.86306088884515,-14.75,64.9745406480817,56.0602435223136,309.556227195894
115,3.86300664306525,-14.75,64.967532180099,56.0543507323491,309.557352635746
115.5,3.86295239728535,-14.75,64.9605237121164,56.0484579423846,309.558478075599
116,3.86289815150545,-14.75,64.9535152441337,56.0425651524201,309.559603515452
116.5,3.8628441522566,-14.75,64.9465067761511,56.0366723624556,309.560723948642
117,3.86279035010435,-14.75,64.9394983081684,56.0307795724911,309.561840379106
117.5,3.86273654795211,-14.75,64.9324898401858,56.0248867825266,309.56295680957
118,3.86268274579987,-14.75,64.9254813722031,56.0189939925621,309.564073240034
118.5,3.86262894364762,-14.75,64.9184729042205,56.0131012025976,309.565189670498
119,3.86257514149538,-14.75,64.9114644362378,56.0072084126331,309.566306100962
119.5,3.86252133934314,-14.75,64.9044559682552,56.0013156226686,309.567422531426
120,3.86246786969646,-14.75,64.8974475002725,55.9954228327041,309.568531924659
120.5,3.86241449266456,-14.75,64.8904390322898,55.9895300427396,309.569639357768
121,3.86236111563266,-14.75,64.8834305643072,55.9836372527751,309.570746790878
121.5,3.86230773860076,-14.75,64.8764220963245,55.9777444628106,309.571854223988
122,3.86225436156886,-14.75,64.8694136283419,55.9718516728461,309.572961657098
122.5,3.86220098453696,-14.75,64.8624051603593,55.9659588828817,309.574069090208
123,3.86214761101471,-14.75,64.8553966923766,55.9600660929172,309.575176445927
123.5,3.86209464336709,-14.75,64.8483882243939,55.9541733029527,309.576274851774
124,3.86204167571946,-14.75,64.8413797564113,55.9482805129882,309.577373257621
124.5,3.86198870807184,-14.75,64.8343712884286,55.9423877230237,309.578471663467
125,3.86193574042421,-14.75,64.827362820446,55.9364949330592,309.579570069314
125.5,3.86188277277659,-14.75,64.8203543524633,55.9306021430947,309.580668475161
126,3.86182980512896,-14.75,64.8133458844806,55.9247093531302,309.581766881007
126.5,3.86177697559759,-14.75,64.806337416498,55.9188165631657,309.582862111516
127,3.86172459567513,-14.75,64.7993289485153,55.9129237732012,309.583947005366
