time,voltage,curr_density,SOC,SOC_est,temp
0,3.58610524814326,-29.5,16,14.88196,266
0.5,3.58552605660102,-29.5,15.9859830640347,14.870174420071,266.009226926443
1,3.58496020818708,-29.5,15.9719661280694,14.858388840142,266.01823044399
1.5,3.58440367146462,-29.5,15.9579491921041,14.846603260213,266.027292181377
2,3.58385387571856,-29.5,15.9439322561388,14.834817680284,266.03640106878
2.5,3.58330987786676,-29.5,15.9299153201735,14.823032100355,266.045554485818
3,3.58277076225069,-29.5,15.9158983842081,14.8112465204261,266.054748421241
3.5,3.58223548228282,-29.5,15.9018814482428,14.7994609404971,266.063976089188
4,3.58170439421908,-29.5,15.8878645122775,14.7876753605681,266.073242336385
4.5,3.5811767200453,-29.5,15.8738475763122,14.7758897806391,266.082541309427
5,3.58065222041925,-29.5,15.8598306403469,14.7641042007101,266.091871670364
5.5,3.58013071388576,-29.5,15.8458137043816,14.7523186207811,266.101232374003
6,3.57961204989869,-29.5,15.8317967684163,14.7405330408521,266.110622486441
6.5,3.57909711462039,-29.5,15.817779832451,14.7287474609231,266.120052016051
7,3.57858340326181,-29.5,15.8037628964857,14.7169618809941,266.129494729994
7.5,3.57807315435855,-29.5,15.7897459605204,14.7051763010651,266.138974970448
8,3.57756495993365,-29.5,15.7757290245551,14.6933907211361,266.1484779148
8.5,3.57705878225671,-29.5,15.7617120885897,14.6816051412071,266.158003146095
9,3.57655570171111,-29.5,15.7476951526244,14.6698195612782,266.167563093563
9.5,3.57605375729686,-29.5,15.7336782166591,14.6580339813492,266.177135834323
10,3.5755550465694,-29.5,15.7196612806938,14.6462484014202,266.186745300998
10.5,3.57505774432493,-29.5,15.7056443447285,14.6344628214912,266.196370941569
11,3.57456246668772,-29.5,15.6916274087632,14.6226772415622,266.206019831115
11.5,3.57406950680719,-29.5,15.6776104727979,14.6108916616332,266.215695573719
12,3.57357752718247,-29.5,15.6635935368326,14.5991060817042,266.225382676361
12.5,3.57308859902758,-29.5,15.6495766008673,14.5873205017752,266.235105343223
13,3.57260060028933,-29.5,15.635559664902,14.5755349218462,266.244838907846
13.5,3.5721146142589,-29.5,15.6215427289367,14.5637493419172,266.254596072226
14,3.57163118540381,-29.5,15.6075257929713,14.5519637619882,266.264383354771
14.5,3.57114933868775,-29.5,15.593508857006,14.5401781820592,266.274189271598
15,3.57066749197168,-29.5,15.5794919210407,14.5283926021303,266.283995188425
15.5,3.57018677387499,-29.5,15.5654749850754,14.5166070222013,266.293814456937
16,3.56971002175007,-29.5,15.5514580491101,14.5048214422723,266.303680643311
16.5,3.56923326962515,-29.5,15.5374411131448,14.4930358623433,266.313546829685
17,3.56875651750023,-29.5,15.5234241771795,14.4812502824143,266.323413016059
17.5,3.56828359182051,-29.5,15.5094072412142,14.4694647024853,266.333324575215
18,3.56781147619121,-29.5,15.4953903052489,14.4576791225563,266.343245739693
18.5,3.56733936056192,-29.5,15.4813733692836,14.4458935426273,266.353166904171
19,3.56686905829672,-29.5,15.4673564333183,14.4341079626983,266.363109558784
19.5,3.56640116919415,-29.5,15.4533394973529,14.4223223827693,266.37308081173
20,3.56593328009158,-29.5,15.4393225613876,14.4105368028403,266.383052064675
20.5,3.5654655176355,-29.5,15.4253056254223,14.3987512229113,266.393024811963
21,3.56500148983397,-29.5,15.411288689457,14.3869656429824,266.403041625607
21.5,3.56453746203244,-29.5,15.3972717534917,14.3751800630534,266.413058439252
22,3.56407343423091,-29.5,15.3832548175264,14.3633944831244,266.423075252897
22.5,3.56361165000413,-29.5,15.3692378815611,14.3516089031954,266.433118388194
23,3.56315114676425,-29.5,15.3552209455958,14.3398233232664,266.443176552047
23.5,3.56269064352437,-29.5,15.3412040096305,14.3280377433374,266.453234715901
24,3.56223091418904,-29.5,15.3271870736652,14.3162521634084,266.463301882526
24.5,3.56177363139681,-29.5,15.3131701376999,14.3044665834794,266.473397509593
25,3.56131634860459,-29.5,15.2991532017345,14.2926810035504,266.48349313666
25.5,3.56085906581237,-29.5,15.2851362657692,14.2808954236214,266.493588763728
26,3.56040426269435,-29.5,15.2711193298039,14.2691098436924,266.50371298758
26.5,3.5599499176786,-29.5,15.2571023938386,14.2573242637634,266.513842494485
27,3.55949557266286,-29.5,15.2430854578733,14.2455386838345,266.523972001391
27.5,3.55904242866049,-29.5,15.229068521908,14.2337531039055,266.534115197945
28,3.55859076555382,-29.5,15.2150515859427,14.2219675239765,266.544275274364
28.5,3.55813910244715,-29.5,15.2010346499774,14.2101819440475,266.554435350782
29,3.55768756525091,-29.5,15.1870177140121,14.1983963641185,266.564596844345
29.5,3.55723834341985,-29.5,15.1730007780468,14.1866107841895,266.57478439776
30,3.55678912158878,-29.5,15.1589838420815,14.1748252042605,266.584971951174
30.5,3.55633989975772,-29.5,15.1449669061162,14.1630396243315,266.595159504589
31,3.55589213331187,-29.5,15.1309499701508,14.1512540444025,266.60536318982
31.5,3.55544513232061,-29.5,15.1169330341855,14.1394684644735,266.615575359522
32,3.55499813132935,-29.5,15.1029160982202,14.1276828845445,266.625787529224
32.5,3.55455165142469,-29.5,15.0888991622549,14.1158973046156,266.636005396186
33,3.5541066616801,-29.5,15.0748822262896,14.1041117246866,266.6462395557
33.5,3.5536616719355,-29.5,15.0608652903243,14.0923261447576,266.656473715213
34,3.55321668219091,-29.5,15.046848354359,14.0805405648286,266.666707874727
34.5,3.55277326247823,-29.5,15.0328314183937,14.0687549848996,266.676958917277
35,3.55233009233958,-29.5,15.0188144824284,14.0569694049706,266.687212643573
35.5,3.55188692220092,-29.5,15.0047975464631,14.0451838250416,266.697466369869
36,3.55144451446603,-29.5,14.9907806104978,14.0333982451126,266.707728175176
36.5,3.55100297829341,-29.5,14.9767636745324,14.0216126651836,266.71799921622
37,3.55056144212078,-29.5,14.9627467385671,14.0098270852546,266.728270257265
37.5,3.55012000906802,-29.5,14.9487298026018,13.9980415053256,266.738542370423
38,3.54967993865668,-29.5,14.9347128666365,13.9862559253966,266.748828650634
38.5,3.54923986824534,-29.5,14.9206959306712,13.9744703454677,266.759114930846
39,3.54879979783401,-29.5,14.9066789947059,13.9626847655387,266.769401211058
39.5,3.54836060110937,-29.5,14.8926620587406,13.9508991856097,266.779696459213
40,3.54792182676187,-29.5,14.8786451227753,13.9391136056807,266.789996042852
40.5,3.54748305241436,-29.5,14.86462818681,13.9273280257517,266.800295626491
41,3.54704459737407,-29.5,14.8506112508447,13.9155424458227,266.810598408129
41.5,3.54660697217947,-29.5,14.8365943148794,13.9037568658937,266.820909501031
42,3.54616934698487,-29.5,14.822577378914,13.8919712859647,266.831220593932
42.5,3.54573172179027,-29.5,14.8085604429487,13.8801857060357,266.841531686833
43,3.54529497283697,-29.5,14.7945435069834,13.8684001261067,266.851851498048
43.5,3.54485834154316,-29.5,14.7805265710181,13.8566145461777,266.862172479937
44,3.54442171024936,-29.5,14.7665096350528,13.8448289662487,266.872493461825
44.5,3.5439854992932,-29.5,14.7524926990875,13.8330433863198,266.882818516207
45,3.54354973400746,-29.5,14.7384757631222,13.8212578063908,266.893147888521
45.5,3.54311396872171,-29.5,14.7244588271569,13.8094722264618,266.903477260836
46,3.54267826626284,-29.5,14.7104418911916,13.7976866465328,266.913807256257
46.5,3.54224320587396,-29.5,14.6964249552263,13.7859010666038,266.924143619622
47,3.54180814548508,-29.5,14.682408019261,13.7741154866748,266.934479982988
47.5,3.5413730850962,-29.5,14.6683910832956,13.7623299067458,266.944816346354
48,3.54093844588634,-29.5,14.6543741473303,13.7505443268168,266.955156669514
48.5,3.54050399336068,-29.5,14.640357211365,13.7387587468878,266.965498747821
49,3.54006954083503,-29.5,14.6263402753997,13.7269731669588,266.975840826128
49.5,3.53963517983159,-29.5,14.6123233394344,13.7151875870298,266.986183785149
50,3.63364906164581,4.31160408199639,14.5983171138225,13.7034110124731,266.996521363225
50.5,3.6633123370244,14.75,14.6053165260777,13.7092961882914,266.991134888119
51,3.66379048453977,14.75,14.6123249940603,13.7151889782559,266.986153829038
51.5,3.6642516076335,14.75,14.619333462043,13.7210817682204,266.981140885073
52,3.66469983307427,14.75,14.6263419300257,13.7269745581849,266.976105872149
52.5,3.66513704352446,14.75,14.6333503980083,13.7328673481494,266.971055886177
53,3.66556586943543,14.75,14.640358865991,13.7387601381139,266.965995407115
53.5,3.66598602930163,14.75,14.6473673339736,13.7446529280784,266.960928488194
54,3.66639886225682,14.75,14.6543758019563,13.7505457180429,266.955858465233
54.5,3.6668041327984,14.75,14.6613842699389,13.7564385080074,266.950787811449
55,3.66720354094944,14.75,14.6683927379216,13.7623312979718,266.945718756738
55.5,3.66759662671541,14.75,14.6754012059042,13.7682240879363,266.940653447118
56,3.66798381206292,14.75,14.6824096738869,13.7741168779008,266.935593732374
56.5,3.66836536010726,14.75,14.6894181418695,13.7800096678653,266.930541195503
57,3.6687414854419,14.75,14.6964266098522,13.7859024578298,266.925497187331
57.5,3.66911237121827,14.75,14.7034350778349,13.7917952477943,266.920463106301
58,3.66947790856567,14.75,14.7104435458175,13.7976880377588,266.915440808581
58.5,3.66983716130692,14.75,14.7174520138002,13.8035808277233,266.910434606674
59,3.67019488565034,14.75,14.7244604817828,13.8094736176878,266.905432990965
59.5,3.67054561757873,14.75,14.7314689497655,13.8153664076523,266.900452357099
60,3.67089500204218,14.7499999996506,14.7384774177481,13.8212591976168,266.895476299494
60.5,3.59086885760354,-14.75,14.7314773599271,13.8153734790003,266.898214364276
61,3.59064176103554,-14.75,14.7244688919444,13.8094806890358,266.900713213861
61.5,3.59042216396279,-14.75,14.7174604239617,13.8035878990713,266.90323247101
62,3.5902078470165,-14.75,14.7104519559791,13.7976951091068,266.905767193191
62.5,3.58999763992722,-14.75,14.7034434879964,13.7918023191423,266.908314621927
63,3.58979032236221,-14.75,14.6964350200138,13.7859095291778,266.910871332744
63.5,3.58958583808284,-14.75,14.6894265520311,13.7800167392133,266.913437399986
64,3.58938343901896,-14.75,14.6824180840485,13.7741239492488,266.916010513407
64.5,3.58918332929299,-14.75,14.6754096160658,13.7682311592843,266.918591502667
65,3.58898453885297,-14.75,14.6684011480832,13.7623383693198,266.92117708492
65.5,3.58878776436291,-14.75,14.6613926801005,13.7564455793553,266.923769757526
66,3.58859225386206,-14.75,14.6543842121179,13.7505527893908,266.926366898922
66.5,3.58839793989547,-14.75,14.6473757441352,13.7446599994263,266.928968272306
67,3.58820480857636,-14.75,14.6403672761525,13.7387672094618,266.931573828522
67.5,3.58801314077337,-14.75,14.6333588081699,13.7328744194973,266.934184554449
68,3.58782240081132,-14.75,14.6263503401872,13.7269816295328,266.936798533659
68.5,3.58763254810465,-14.75,14.6193418722046,13.7210888395683,266.939415607292
69,3.58744357283399,-14.75,14.6123334042219,13.7151960496038,266.942035721419
69.5,3.58725572554192,-14.75,14.6053249362393,13.7093032596393,266.944659698542
70,3.58706891219959,-14.75,14.5983164682566,13.7034104696748,266.947287114973
70.5,3.58688265545345,-14.75,14.591308000274,13.6975176797104,266.949916381192
71,3.5866963987073,-14.75,14.5842995322913,13.6916248897459,266.952545647412
71.5,3.58651193450642,-14.75,14.5772910643087,13.6857320997814,266.955180629379
72,3.58632750265779,-14.75,14.570282596326,13.6798393098169,266.957815714506
72.5,3.58614357389785,-14.75,14.5632741283434,13.6739465198524,266.960452291731
73,3.58596070775881,-14.75,14.5562656603607,13.6680537298879,266.963092020555
73.5,3.58577784161978,-14.75,14.549257192378,13.6621609399234,266.965731749379
74,3.58559586812415,-14.75,14.5422487243954,13.6562681499589,266.968373881416
74.5,3.58541435373429,-14.75,14.5352402564127,13.6503753599944,266.971017249477
75,3.58523283934444,-14.75,14.5282317884301,13.6444825700299,266.973660617539
75.5,3.58505249720736,-14.75,14.5212233204474,13.6385897800654,266.976306753023
76,3.5848721557662,-14.75,14.5142148524648,13.6326969901009,266.978952890151
76.5,3.58469215936886,-14.75,14.5072063844821,13.6268042001364,266.981599713546
77,3.58451283740507,-14.75,14.5001979164995,13.6209114101719,266.984247878342
77.5,3.58433351544127,-14.75,14.4931894485168,13.6150186202074,266.986896043139
78,3.58415479429925,-14.75,14.4861809805342,13.6091258302429,266.989545140444
78.5,3.58397635916163,-14.75,14.4791725125515,13.6032330402784,266.992194681645
79,3.58379793679914,-14.75,14.4721640445688,13.5973402503139,266.994844236043
79.5,3.58362027396152,-14.75,14.4651555765862,13.5914474603494,266.997494575046
80,3.58344261112391,-14.75,14.4581471086035,13.5855546703849,267.00014491405
80.5,3.58326518777444,-14.75,14.4511386406209,13.5796618804204,267.002795359676
81,3.58308819843833,-14.75,14.4441301726382,13.5737690904559,267.005445998529
81.5,3.58291120910223,-14.75,14.4371217046556,13.5678763004914,267.008096637382
82,3.58273462763034,-14.75,14.4301132366729,13.561983510527,267.010747181973
82.5,3.58255822546044,-14.75,14.4231047686903,13.5560907205625,267.013397685125
83,3.58238184050543,-14.75,14.4160963007076,13.550197930598,267.016048170383
83.5,3.58220594951751,-14.75,14.4090878327249,13.5443051406335,267.018698142191
84,3.58203005852958,-14.75,14.4020793647423,13.538412350669,267.021348113998
84.5,3.58185440502303,-14.75,14.3950708967596,13.5325195607045,267.023997552484
85,3.58167915118994,-14.75,14.388062428777,13.52662677074,267.026646093407
85.5,3.58150389735685,-14.75,14.3810539607943,13.5207339807755,267.02929463433
86,3.58132864352375,-14.75,14.3740454928117,13.514841190811,267.031943175253
86.5,3.58115338969066,-14.75,14.367037024829,13.5089484008465,267.034591716175
87,3.58097816975207,-14.75,14.3600285568464,13.503055610882,267.03724011308
87.5,3.58080358298155,-14.75,14.3530200888637,13.4971628209175,267.039885819642
88,3.58062899621103,-14.75,14.3460116208811,13.491270030953,267.042531526203
88.5,3.58045440944051,-14.75,14.3390031528984,13.4853772409885,267.045177232765
89,3.58027982266999,-14.75,14.3319946849158,13.479484451024,267.047822939327
89.5,3.58010523589947,-14.75,14.3249862169331,13.4735916610595,267.050468645889
90,3.57993100454717,-14.75,14.3179777489504,13.467698871095,267.053111666335
90.5,3.57975690538465,-14.75,14.3109692809678,13.4618060811305,267.055753687742
91,3.57958280622213,-14.75,14.3039608129851,13.455913291166,267.058395709149
91.5,3.57940870705961,-14.75,14.2969523450025,13.4500205012015,267.061037730556
92,3.57923460789709,-14.75,14.2899438770198,13.444127711237,267.063679751963
92.5,3.57906064816957,-14.75,14.2829354090372,13.4382349212725,267.066320011315
93,3.57888689160631,-14.75,14.2759269410545,13.432342131308,267.068957703258
93.5,3.57871313504306,-14.75,14.2689184730719,13.4264493413435,267.0715953952
94,3.5785393784798,-14.75,14.2619100050892,13.4205565513791,267.074233087143
94.5,3.57836562191655,-14.75,14.2549015371065,13.4146637614146,267.076870779086
95,3.57819188440503,-14.75,14.2478930691239,13.4087709714501,267.079508060329
95.5,3.57801835176516,-14.75,14.2408846011412,13.4028781814856,267.082140925133
96,3.5778448191253,-14.75,14.2338761331586,13.3969853915211,267.084773789937
96.5,3.57767128648543,-14.75,14.2268676651759,13.3910926015566,267.08740665474
97,3.57749775384557,-14.75,14.2198591971933,13.3851998115921,267.090039519544
97.5,3.57732422120571,-14.75,14.2128507292106,13.3793070216276,267.092672384348
98,3.57715078397342,-14.75,14.205842261228,13.3734142316631,267.09530127416
98.5,3.57697737634817,-14.75,14.1988337932453,13.3675214416986,267.097928930447
99,3.57680396872291,-14.75,14.1918253252627,13.3616286517341,267.100556586733
99.5,3.57663056109766,-14.75,14.18481685728,13.3557358617696,267.10318424302
100,3.5764571534724,-14.75,14.1778083892973,13.3498430718051,267.105811899306
100.5,3.57628376425422,-14.75,14.1707999213147,13.3439502818406,267.108437136197
101,3.57611039834361,-14.75,14.163791453332,13.3380574918761,267.111059309576
101.5,3.575937032433,-14.75,14.1567829853494,13.3321647019116,267.113681482956
102,3.5757636665224,-14.75,14.1497745173667,13.3262719119471,267.116303656335
102.5,3.57559030061179,-14.75,14.1427660493841,13.3203791219826,267.118925829714
103,3.57541693121226,-14.75,14.1357575814014,13.3144863320181,267.121547326515
103.5,3.57524353606928,-14.75,14.1287491134188,13.3085935420536,267.124163831096
104,3.5750701409263,-14.75,14.1217406454361,13.3027007520891,267.126780335677
104.5,3.57489674578331,-14.75,14.1147321774535,13.2968079621246,267.129396840258
105,3.57472335064033,-14.75,14.1077237094708,13.2909151721601,267.132013344839
105.5,3.57454995549735,-14.75,14.1007152414882,13.2850223821957,267.13462984942
106,3.5743764881969,-14.75,14.0937067735055,13.2791295922312,267.137241746349
106.5,3.57420300256769,-14.75,14.0866983055228,13.2732368022667,267.139852472884
107,3.57402951693847,-14.75,14.0796898375402,13.2673440123022,267.142463199419
107.5,3.57385603130926,-14.75,14.0726813695575,13.2614512223377,267.145073925954
108,3.57368254568004,-14.75,14.0656729015749,13.2555584323732,267.147684652489
108.5,3.57350899169028,-14.75,14.0586644335922,13.2496656424087,267.15029260694
109,3.57333536230493,-14.75,14.0516559656096,13.2437728524442,267.152897504029
109.5,3.57316173291959,-14.75,14.0446474976269,13.2378800624797,267.155502401117
110,3.57298810353425,-14.75,14.0376390296443,13.2319872725152,267.158107298206
110.5,3.5728144741489,-14.75,14.0306305616616,13.2260944825507,267.160712195295
111,3.57264079769007,-14.75,14.023622093679,13.2202016925862,267.163315743137
111.5,3.57246686187927,-14.75,14.0166136256963,13.2143089026217,267.165911857291
112,3.57229292606847,-14.75,14.0096051577136,13.2084161126572,267.168507971445
112.5,3.57211899025767,-14.75,14.002596689731,13.2025233226927,267.171104085599
113,3.57194505444687,-14.75,13.9955882217483,13.1966305327282,267.173700199752
113.5,3.57177111863607,-14.75,13.9885797537657,13.1907377427637,267.176296313906
114,3.57159718282527,-14.75,13.981571285783,13.1848449527992,267.17889242806
114.5,3.57142324701447,-14.75,13.9745628178004,13.1789521628347,267.181488542214
115,3.57124931120366,-14.75,13.9675543498177,13.1730593728702,267.184084656368
115.5,3.57107537539286,-14.75,13.9605458818351,13.1671665829057,267.186680770522
116,3.57090143958206,-14.75,13.9535374138524,13.1612737929412,267.189276884675
116.5,3.57072722996614,-14.75,13.9465289458698,13.1553810029767,267.191867092002
117,3.57055275707325,-14.75,13.9395204778871,13.1494882130123,267.194451619625
117.5,3.57037828418037,-14.75,13.9325120099044,13.1435954230478,267.197036147249
118,3.57020381128748,-14.75,13.9255035419218,13.1377026330833,267.199620674872
118.5,3.57002933839459,-14.75,13.9184950739391,13.1318098431188,267.202205202496
119,3.56985486550171,-14.75,13.9114866059565,13.1259170531543,267.204789730119
119.5,3.56968039260882,-14.75,13.9044781379738,13.1200242631898,267.207374257743
120,3.56950591971594,-14.75,13.8974696699912,13.1141314732253,267.209958785366
120.5,3.56933144682305,-14.75,13.8904612020085,13.1082386832608,267.21254331299
121,3.56915697393017,-14.75,13.8834527340259,13.1023458932963,267.215127840613
121.5,3.56898250103728,-14.75,13.8764442660432,13.0964531033318,267.217712368237
122,3.5688074508147,-14.75,13.8694357980605,13.0905603133673,267.220287145286
122.5,3.56863231124488,-14.75,13.8624273300779,13.0846675234028,267.222860413342
123,3.56845717167505,-14.75,13.8554188620952,13.0787747334383,267.225433681397
123.5,3.56828203210523,-14.75,13.8484103941126,13.0728819434738,267.228006949453
124,3.56810689253541,-14.75,13.8414019261299,13.0669891535093,267.230580217508
124.5,3.56793175296558,-14.75,13.8343934581473,13.0610963635448,267.233153485564
125,3.56775661339576,-14.75,13.8273849901646,13.0552035735803,267.23572675362
125.5,3.56758147382594,-14.75,13.820376522182,13.0493107836158,267.238300021675
126,3.56740633425611,-14.75,13.8133680541993,13.0434179936513,267.240873289731
126.5,3.56723119468629,-14.75,13.8063595862167,13.0375252036868,267.243446557786
127,3.56705588287537,-14.75,13.799351118234,13.0316324137223,267.246017435287
