time,voltage,curr_density,SOC,SOC_est,temp
0,3.75944202436787,-29.5,44,38.42464,318
0.5,3.75913228362852,-29.5,43.9859830640347,38.412854420071,318.005629871787
1,3.75885247579731,-29.5,43.9719661280694,38.401068840142,318.010968915877
1.5,3.75859044427723,-29.5,43.9579491921041,38.389283260213,318.016330295041
2,3.75834170881964,-29.5,43.9439322561388,38.377497680284,318.021710562824
2.5,3.75810372966355,-29.5,43.9299153201734,38.365712100355,318.027107575548
3,3.757874676748,-29.5,43.9158983842081,38.3539265204261,318.032519419757
3.5,3.75765395597622,-29.5,43.9018814482428,38.3421409404971,318.037945935638
4,3.75743901838499,-29.5,43.8878645122775,38.3303553605681,318.043383047476
4.5,3.75722990248417,-29.5,43.8738475763122,38.3185697806391,318.048831078279
5,3.7570259650973,-29.5,43.8598306403469,38.3067842007101,318.054289039548
5.5,3.75682668195789,-29.5,43.8458137043816,38.2949986207811,318.059756094645
6,3.75663161776244,-29.5,43.8317967684163,38.2832130408521,318.065231506986
6.5,3.75644040019894,-29.5,43.817779832451,38.2714274609231,318.070714578561
7,3.75625270619429,-29.5,43.8037628964857,38.2596418809941,318.076204645907
7.5,3.75606887756197,-29.5,43.7897459605204,38.2478563010651,318.081702329636
8,3.75588761049392,-29.5,43.7757290245551,38.2360707211361,318.087205038739
8.5,3.75570865792571,-29.5,43.7617120885898,38.2242851412071,318.09271217742
9,3.75553274522033,-29.5,43.7476951526244,38.2124995612782,318.098225133908
9.5,3.75535884398401,-29.5,43.7336782166591,38.2007139813492,318.103741779531
10,3.75518761191231,-29.5,43.7196612806938,38.1889284014202,318.109263320537
10.5,3.75501814468695,-29.5,43.7056443447285,38.1771428214912,318.114787903648
11,3.75485104360208,-29.5,43.6916274087632,38.1653572415622,318.120316565329
11.5,3.7546855031282,-29.5,43.6776104727979,38.1535716616332,318.12584770136
12,3.75452207666235,-29.5,43.6635935368326,38.1417860817042,318.131382189151
12.5,3.75436004057479,-29.5,43.6495766008673,38.1300005017752,318.136918651765
13,3.75419990744985,-29.5,43.635559664902,38.1182149218462,318.14245781725
13.5,3.75404102267272,-29.5,43.6215427289366,38.1064293419172,318.147998530265
14,3.7538838642319,-29.5,43.6075257929713,38.0946437619882,318.153541383353
14.5,3.75372783367491,-29.5,43.593508857006,38.0828581820592,318.159085389507
15,3.75357337911054,-29.5,43.5794919210407,38.0710726021303,318.164631006841
15.5,3.75342042097299,-29.5,43.5654749850754,38.0592870222013,318.170177727786
16,3.75326957560941,-29.5,43.5514580491101,38.0475014422723,318.175726006897
16.5,3.75311873024584,-29.5,43.5374411131448,38.0357158623433,318.181274286008
17,3.75296788488226,-29.5,43.5234241771795,38.0239302824143,318.186822565119
17.5,3.75281868132482,-29.5,43.5094072412142,38.0121447024853,318.192371339966
18,3.75267184455454,-29.5,43.4953903052489,38.0003591225563,318.197920829454
18.5,3.75252500778427,-29.5,43.4813733692836,37.9885735426273,318.203470318941
19,3.752378171014,-29.5,43.4673564333183,37.9767879626983,318.209019808428
19.5,3.75223399189336,-29.5,43.4533394973529,37.9650023827693,318.214568672395
20,3.75209045641544,-29.5,43.4393225613876,37.9532168028403,318.220117384869
20.5,3.75194692093751,-29.5,43.4253056254223,37.9414312229113,318.225666097343
21,3.75180397228037,-29.5,43.411288689457,37.9296456429824,318.231214330562
21.5,3.75166336366853,-29.5,43.3972717534917,37.9178600630534,318.236760652668
22,3.75152275505669,-29.5,43.3832548175264,37.9060744831244,318.242306974774
22.5,3.75138214644484,-29.5,43.3692378815611,37.8942889031954,318.24785329688
23,3.75124310458567,-29.5,43.3552209455958,37.8825033232664,318.253397410147
23.5,3.75110512494735,-29.5,43.3412040096305,37.8707177433374,318.258940025874
24,3.75096714530903,-29.5,43.3271870736652,37.8589321634084,318.264482641602
24.5,3.75082916567071,-29.5,43.3131701376998,37.8471465834794,318.270025257329
25,3.7506935510805,-29.5,43.2991532017345,37.8353610035504,318.275563071669
25.5,3.750557956964,-29.5,43.2851362657692,37.8235754236214,318.281100844445
26,3.75042236284751,-29.5,43.2711193298039,37.8117898436924,318.286638617221
26.5,3.75028761322348,-29.5,43.2571023938386,37.8000042637635,318.292174135102
27,3.75015420194065,-29.5,43.2430854578733,37.7882186838345,318.297706079454
27.5,3.75002079065783,-29.5,43.229068521908,37.7764331039055,318.303238023806
28,3.749887379375,-29.5,43.2150515859427,37.7646475239765,318.308769968157
28.5,3.74975554438993,-29.5,43.2010346499774,37.7528619440475,318.314296657706
29,3.74962414795595,-29.5,43.1870177140121,37.7410763641185,318.319821885285
29.5,3.74949275152197,-29.5,43.1730007780468,37.7292907841895,318.325347112864
30,3.74936168862417,-29.5,43.1589838420815,37.7175052042605,318.33087100144
30.5,3.74923216807649,-29.5,43.1449669061162,37.7057196243315,318.336388698152
31,3.74910264752881,-29.5,43.1309499701509,37.6939340444025,318.341906394864
31.5,3.74897312698113,-29.5,43.1169330341855,37.6821484644735,318.347424091576
32,3.74884461446613,-29.5,43.1029160982202,37.6703628845445,318.352937051894
32.5,3.74871685232951,-29.5,43.0888991622549,37.6585773046155,318.358446486446
33,3.74858909019289,-29.5,43.0748822262896,37.6467917246866,318.363955920998
33.5,3.74846132805628,-29.5,43.0608652903243,37.6350061447576,318.369465355549
34,3.74833517270063,-29.5,43.046848354359,37.6232205648286,318.374966167442
34.5,3.74820906921968,-29.5,43.0328314183937,37.6114349848996,318.380466700952
35,3.74808296573873,-29.5,43.0188144824284,37.5996494049706,318.385967234463
35.5,3.74795770866481,-29.5,43.0047975464631,37.5878638250416,318.391462463482
36,3.74783392928825,-29.5,42.9907806104978,37.5760782451126,318.396948431668
36.5,3.74771014991169,-29.5,42.9767636745324,37.5642926651836,318.402434399853
37,3.74758637053513,-29.5,42.9627467385671,37.5525070852546,318.407920368039
37.5,3.74746259115858,-29.5,42.9487298026018,37.5407215053256,318.413406336225
38,3.74733881178202,-29.5,42.9347128666365,37.5289359253966,318.418892304411
38.5,3.74721503240546,-29.5,42.9206959306712,37.5171503454676,318.424378272596
39,3.74709169853603,-29.5,42.9066789947059,37.5053647655387,318.429860970408
39.5,3.74697079137442,-29.5,42.8926620587406,37.4935791856097,318.435325854271
40,3.74684988421281,-29.5,42.8786451227753,37.4817936056807,318.440790738133
40.5,3.74672897705119,-29.5,42.86462818681,37.4700080257517,318.446255621996
41,3.74660806988958,-29.5,42.8506112508447,37.4582224458227,318.451720505859
41.5,3.74648716272797,-29.5,42.8365943148794,37.4464368658937,318.457185389721
42,3.74636625556636,-29.5,42.822577378914,37.4346512859647,318.462650273584
42.5,3.74624534840474,-29.5,42.8085604429487,37.4228657060357,318.468115157446
43,3.74612695240647,-29.5,42.7945435069834,37.4110801261067,318.473558289134
43.5,3.74600869966123,-29.5,42.7805265710181,37.3992945461777,318.479000179937
44,3.74589044691598,-29.5,42.7665096350528,37.3875089662488,318.48444207074
44.5,3.74577219417073,-29.5,42.7524926990875,37.3757233863198,318.489883961543
45,3.74565394142549,-29.5,42.7384757631222,37.3639378063908,318.495325852346
45.5,3.74553568868024,-29.5,42.7244588271569,37.3521522264618,318.500767743149
46,3.745417435935,-29.5,42.7104418911916,37.3403666465328,318.506209633952
46.5,3.7453010115294,-29.5,42.6964249552263,37.3285810666038,318.511633266665
47,3.7451852397217,-29.5,42.682408019261,37.3167954866748,318.517050382433
47.5,3.745069467914,-29.5,42.6683910832957,37.3050099067458,318.5224674982
48,3.7449536961063,-29.5,42.6543741473303,37.2932243268168,318.527884613967
48.5,3.7448379242986,-29.5,42.640357211365,37.2814387468878,318.533301729734
49,3.7447221524909,-29.5,42.6263402753997,37.2696531669588,318.538718845502
49.5,3.7446063806832,-29.5,42.6123233394344,37.2578675870298,318.544135961269
50,3.79363523779076,6.29137443587668,42.598317740916,37.2460915397396,318.549541355827
50.5,3.80556532399292,14.75,42.6053220171906,37.251980805274,318.545858945775
51,3.80584338979782,14.75,42.6123304851732,37.2578735952385,318.542669874918
51.5,3.80609866353545,14.75,42.6193389531559,37.263766385203,318.539486579685
52,3.80633704308594,14.75,42.6263474211385,37.2696591751675,318.53631129341
52.5,3.8065615344969,14.75,42.6333558891212,37.275551965132,318.53314553992
53,3.80677449757678,14.75,42.6403643571038,37.2814447550965,318.529990307833
53.5,3.80697660830829,14.75,42.6473728250865,37.287337545061,318.526847665807
54,3.80717132554849,14.75,42.6543812930692,37.2932303350255,318.523715370042
54.5,3.80735857521565,14.75,42.6613897610518,37.29912312499,318.52059507623
55,3.80753919613566,14.75,42.6683982290345,37.3050159149545,318.517487049966
55.5,3.80771387665624,14.75,42.6754066970171,37.310908704919,318.514391474766
56,3.80788319497057,14.75,42.6824151649998,37.3168014948835,318.511308470587
56.5,3.80804764453813,14.75,42.6894236329824,37.322694284848,318.508238125942
57,3.80820764997747,14.75,42.6964321009651,37.3285870748125,318.505180481906
57.5,3.80836357905239,14.75,42.7034405689477,37.3344798647769,318.502135565277
58,3.80851575367644,14.75,42.7104490369304,37.3403726547415,318.49910338734
58.5,3.8086644577763,14.75,42.7174575049131,37.3462654447059,318.49608392792
59,3.80880868899107,14.75,42.7244659728957,37.3521582346704,318.493082528089
59.5,3.80895234715022,14.75,42.7314744408784,37.3580510246349,318.490083466717
60,3.78045563995039,-6.28749193566214,42.7384769112935,37.3639387717847,318.48710401493
60.5,3.76877827803038,-14.75,42.7314784479672,37.3580543938353,318.488801158838
61,3.76864547771963,-14.75,42.7244699799845,37.3521616038708,318.490199885762
61.5,3.76852704171335,-14.75,42.7174615120019,37.3462688139063,318.491606443743
62,3.7684193571013,-14.75,42.7104530440192,37.3403760239418,318.493019637236
62.5,3.76831966021683,-14.75,42.7034445760365,37.3344832339773,318.494438089544
63,3.76822661897909,-14.75,42.6964361080539,37.3285904440128,318.495861130392
63.5,3.76813888988834,-14.75,42.6894276400712,37.3226976540483,318.497287887724
64,3.76805599322802,-14.75,42.6824191720886,37.3168048640838,318.498718042025
64.5,3.76797743707747,-14.75,42.6754107041059,37.3109120741193,318.500151210564
65,3.76790154206914,-14.75,42.6684022361233,37.3050192841548,318.501586149403
65.5,3.7678284706373,-14.75,42.6613937681406,37.2991264941903,318.503022903694
66,3.76775862518543,-14.75,42.654385300158,37.2932337042258,318.504461531126
66.5,3.76769101146016,-14.75,42.6473768321753,37.2873409142613,318.505901287701
67,3.76762529057269,-14.75,42.6403683641926,37.2814481242968,318.507341894581
67.5,3.76756131309051,-14.75,42.63335989621,37.2755553343323,318.508783183968
68,3.76749914712459,-14.75,42.6263514282274,37.2696625443678,318.510225034074
68.5,3.76743873155769,-14.75,42.6193429602447,37.2637697544033,318.511667196928
69,3.76737957026997,-14.75,42.612334492262,37.2578769644388,318.513109406022
69.5,3.76732157991711,-14.75,42.6053260242794,37.2519841744744,318.514551542211
70,3.7672646815165,-14.75,42.5983175562967,37.2460913845099,318.5159934951
70.5,3.76720912952368,-14.75,42.5913090883141,37.2401985945454,318.51743500541
71,3.76715490532578,-14.75,42.5843006203314,37.2343058045809,318.518875705422
71.5,3.76710115740772,-14.75,42.5772921523488,37.2284130146164,318.520316114781
72,3.76704772886776,-14.75,42.5702836843661,37.2225202246519,318.521756205699
72.5,3.76699601946209,-14.75,42.5632752163835,37.2166274346874,318.523194582528
73,3.76694431005643,-14.75,42.5562667484008,37.2107346447229,318.524632959356
73.5,3.76689357274671,-14.75,42.5492582804182,37.2048418547584,318.526069793785
74,3.76684354707145,-14.75,42.5422498124355,37.1989490647939,318.52750549908
74.5,3.76679352139618,-14.75,42.5352413444528,37.1930562748294,318.528941204375
75,3.76674489932268,-14.75,42.5282328764702,37.1871634848649,318.530373746104
75.5,3.76669628003247,-14.75,42.5212244084875,37.1812706949004,318.53180628156
76,3.76664815825594,-14.75,42.5142159405049,37.1753779049359,318.533237328762
76.5,3.76660072721312,-14.75,42.5072074725222,37.1694851149714,318.534666309714
77,3.76655329617029,-14.75,42.5001990045396,37.1635923250069,318.536095290666
77.5,3.76650671548403,-14.75,42.4931905365569,37.1576995350424,318.537521027469
78,3.76646029753051,-14.75,42.4861820685743,37.1518067450779,318.538946143439
78.5,3.76641410565654,-14.75,42.4791736005916,37.1459139551134,318.540370180914
79,3.76636855709195,-14.75,42.4721651326089,37.1400211651489,318.541791149531
79.5,3.76632300852736,-14.75,42.4651566646263,37.1341283751844,318.543212118147
80,3.76627797124746,-14.75,42.4581481966436,37.1282355852199,318.544630090828
80.5,3.76623317377838,-14.75,42.451139728661,37.1223427952554,318.546046658309
81,3.76618844262507,-14.75,42.4441312606783,37.116450005291,318.547462761257
81.5,3.76614429920266,-14.75,42.4371227926957,37.1105572153265,318.548874747233
82,3.76610015578025,-14.75,42.430114324713,37.104664425362,318.55028673321
82.5,3.76605631202001,-14.75,42.4231058567304,37.0987716353975,318.55169624349
83,3.76601274258892,-14.75,42.4160973887477,37.092878845433,318.553103487367
83.5,3.76596917315782,-14.75,42.4090889207651,37.0869860554685,318.554510731243
84,3.76592629498048,-14.75,42.4020804527824,37.081093265504,318.555911059818
84.5,3.76588345878697,-14.75,42.3950719847998,37.0752004755395,318.557310968388
85,3.76584062259345,-14.75,42.3880635168171,37.069307685575,318.558710876957
85.5,3.76579778639993,-14.75,42.3810550488344,37.0634148956105,318.560110785526
86,3.76575495020641,-14.75,42.3740465808518,37.057522105646,318.561510694095
86.5,3.76571275062167,-14.75,42.3670381128691,37.0516293156815,318.562902630935
87,3.76567072633524,-14.75,42.3600296448865,37.045736525717,318.564292372658
87.5,3.76562870204881,-14.75,42.3530211769038,37.0398437357525,318.565682114381
88,3.76558667776237,-14.75,42.3460127089212,37.033950945788,318.567071856104
88.5,3.76554465347594,-14.75,42.3390042409385,37.0280581558235,318.568461597827
89,3.76550304361563,-14.75,42.3319957729559,37.022165365859,318.569844798668
89.5,3.76546168194505,-14.75,42.3249873049732,37.0162725758945,318.571224082333
90,3.76542032027446,-14.75,42.3179788369905,37.01037978593,318.572603365999
90.5,3.76537895860387,-14.75,42.3109703690079,37.0044869959655,318.573982649665
91,3.76533759693329,-14.75,42.3039619010252,36.998594206001,318.575361933331
91.5,3.76529649463241,-14.75,42.2969534330426,36.9927014160365,318.576736258333
92,3.76525568860919,-14.75,42.2899449650599,36.986808626072,318.578104919062
92.5,3.76521488258598,-14.75,42.2829364970773,36.9809158361075,318.57947357979
93,3.76517407656276,-14.75,42.2759280290946,36.9750230461431,318.580842240518
93.5,3.76513327053954,-14.75,42.268919561112,36.9691302561786,318.582210901246
94,3.76509261200279,-14.75,42.2619110931293,36.9632374662141,318.583576252739
94.5,3.76505228461859,-14.75,42.2549026251467,36.9573446762496,318.584934173979
95,3.76501195723439,-14.75,42.247894157164,36.9514518862851,318.586292095219
95.5,3.76497162985019,-14.75,42.2408856891814,36.9455590963206,318.587650016459
96,3.76493130246599,-14.75,42.2338772211987,36.9396663063561,318.5890079377
96.5,3.76489103814082,-14.75,42.226868753216,36.9337735163916,318.590364240157
97,3.7648511325957,-14.75,42.2198602852334,36.9278807264271,318.591711332406
97.5,3.76481122705058,-14.75,42.2128518172507,36.9219879364626,318.593058424654
98,3.76477132150546,-14.75,42.2058433492681,36.9160951464981,318.594405516902
98.5,3.76473141596034,-14.75,42.1988348812854,36.9102023565336,318.595752609151
99,3.76469151041522,-14.75,42.1918264133028,36.9043095665691,318.597099701399
99.5,3.76465198000262,-14.75,42.1848179453201,36.8984167766046,318.598436021361
100,3.76461245305998,-14.75,42.1778094773375,36.8925239866401,318.599772241679
100.5,3.76457292611735,-14.75,42.1708010093548,36.8866311966756,318.601108461997
101,3.76453339917471,-14.75,42.1637925413722,36.8807384067111,318.602444682315
101.5,3.76449387223208,-14.75,42.1567840733895,36.8748456167466,318.603780902633
102,3.76445463257521,-14.75,42.1497756054069,36.8689528267821,318.605108056939
102.5,3.76441545085178,-14.75,42.1427671374242,36.8630600368177,318.606433383011
103,3.76437626912835,-14.75,42.1357586694416,36.8571672468532,318.607758709084
103.5,3.76433708740492,-14.75,42.1287502014589,36.8512744568887,318.609084035157
104,3.76429790568148,-14.75,42.1217417334763,36.8453816669242,318.61040936123
104.5,3.76425893902729,-14.75,42.1147332654936,36.8394888769597,318.61172736673
105,3.76422007661919,-14.75,42.1077247975109,36.8335960869952,318.61304182388
105.5,3.76418121421108,-14.75,42.1007163295283,36.8277032970307,318.614356281029
106,3.76414235180298,-14.75,42.0937078615456,36.8218105070662,318.615670738179
106.5,3.76410348939488,-14.75,42.086699393563,36.8159177171017,318.616985195329
107,3.76406478086786,-14.75,42.0796909255803,36.8100249271372,318.61829406487
107.5,3.76402621732688,-14.75,42.0726824575977,36.8041321371727,318.619597669792
108,3.7639876537859,-14.75,42.065673989615,36.7982393472082,318.620901274714
108.5,3.76394909024493,-14.75,42.0586655216324,36.7923465572437,318.622204879636
109,3.76391052670395,-14.75,42.0516570536497,36.7864537672792,318.623508484558
109.5,3.76387211157759,-14.75,42.0446485856671,36.7805609773147,318.624806321147
110,3.76383396466231,-14.75,42.0376401176844,36.7746681873502,318.626093733351
110.5,3.76379581774703,-14.75,42.0306316497017,36.7687753973857,318.627381145556
111,3.76375767083175,-14.75,42.0236231817191,36.7628826074212,318.62866855776
111.5,3.76371952391648,-14.75,42.0166147137364,36.7569898174567,318.629955969964
112,3.7636813770012,-14.75,42.0096062457538,36.7510970274922,318.631243382169
112.5,3.76364323008592,-14.75,42.0025977777711,36.7452042375277,318.632530794373
113,3.76360508317064,-14.75,41.9955893097885,36.7393114475632,318.633818206578
113.5,3.76356693625537,-14.75,41.9885808418058,36.7334186575987,318.635105618782
114,3.76352878934009,-14.75,41.9815723738232,36.7275258676342,318.636393030987
114.5,3.76349066241278,-14.75,41.9745639058405,36.7216330776698,318.637679604848
115,3.76345302896082,-14.75,41.9675554378579,36.7157402877053,318.638945481162
115.5,3.76341539550886,-14.75,41.9605469698752,36.7098474977408,318.640211357477
116,3.7633777620569,-14.75,41.9535385018925,36.7039547077763,318.641477233792
116.5,3.76334012860494,-14.75,41.9465300339099,36.6980619178118,318.642743110107
117,3.76330249515298,-14.75,41.9395215659272,36.6921691278473,318.644008986421
117.5,3.76326486170102,-14.75,41.9325130979446,36.6862763378828,318.645274862736
118,3.76322722824905,-14.75,41.9255046299619,36.6803835479183,318.646540739051
118.5,3.76318959479709,-14.75,41.9184961619793,36.6744907579538,318.647806615366
119,3.76315196134513,-14.75,41.9114876939966,36.6685979679893,318.649072491681
119.5,3.76311432789317,-14.75,41.904479226014,36.6627051780248,318.650338367995
120,3.76307703583441,-14.75,41.8974707580313,36.6568123880603,318.651588809615
120.5,3.76303987547168,-14.75,41.8904622900487,36.6509195980958,318.652833297139
121,3.76300271510896,-14.75,41.883453822066,36.6450268081313,318.654077784663
121.5,3.76296555474623,-14.75,41.8764453540834,36.6391340181668,318.655322272187
122,3.7629283943835,-14.75,41.8694368861007,36.6332412282023,318.656566759711
122.5,3.76289123402077,-14.75,41.862428418118,36.6273484382378,318.657811247235
123,3.76285407365804,-14.75,41.8554199501354,36.6214556482733,318.659055734758
123.5,3.76281691329531,-14.75,41.8484114821527,36.6155628583088,318.660300222282
124,3.76277975293258,-14.75,41.8414030141701,36.6096700683444,318.661544709806
124.5,3.76274259256985,-14.75,41.8343945461874,36.6037772783799,318.66278919733
125,3.76270561038358,-14.75,41.8273860782048,36.5978844884154,318.664025135322
125.5,3.76266889069934,-14.75,41.8203776102221,36.5919916984509,318.665248477547
126,3.76263217101509,-14.75,41.8133691422395,36.5860989084864,318.666471819772
126.5,3.76259545133084,-14.75,41.8063606742568,36.5802061185219,318.667695161996
127,3.76255873164659,-14.75,41.7993522062742,36.5743133285574,318.668918504221
