time,voltage,curr_density,SOC,SOC_est,temp
0,3.80763537586648,-29.5,57,49.35517,296
0.5,3.80727491028189,-29.5,56.9859830640347,49.343384420071,296.005278003407
1,3.8069462398286,-29.5,56.9719661280694,49.331598840142,296.010352924561
1.5,3.80663569847692,-29.5,56.9579491921041,49.319813260213,296.015455341709
2,3.80633945988061,-29.5,56.9439322561388,49.308027680284,296.02058190353
2.5,3.80605516339541,-29.5,56.9299153201734,49.296242100355,296.025730182956
3,3.80578012109391,-29.5,56.9158983842082,49.2844565204261,296.030896147526
3.5,3.80551431794347,-29.5,56.9018814482428,49.2726709404971,296.036080532067
4,3.80525569996391,-29.5,56.8878645122775,49.2608853605681,296.041279739962
4.5,3.80500484239319,-29.5,56.8738475763122,49.2490997806391,296.046495385742
5,3.80475860414885,-29.5,56.8598306403469,49.2373142007101,296.051720986504
5.5,3.8045177388696,-29.5,56.8458137043816,49.2255286207811,296.056958254473
6,3.80428300269591,-29.5,56.8317967684163,49.2137430408521,296.062208955488
6.5,3.80405242156102,-29.5,56.817779832451,49.2019574609231,296.067468784301
7,3.80382574000923,-29.5,56.8037628964857,49.1901718809941,296.072737165899
7.5,3.80360271961872,-29.5,56.7897459605203,49.1783863010651,296.078013546403
8,3.80338352734479,-29.5,56.775729024555,49.1666007211361,296.083298213994
8.5,3.80316819405959,-29.5,56.7617120885897,49.1548151412071,296.088591075472
9,3.8029557554276,-29.5,56.7476951526244,49.1430295612781,296.093889957185
9.5,3.80274606788501,-29.5,56.7336782166591,49.1312439813492,296.099194466382
10,3.80253899569727,-29.5,56.7196612806938,49.1194584014202,296.104504225357
10.5,3.80233489946079,-29.5,56.7056443447285,49.1076728214912,296.109819776309
11,3.80213464488358,-29.5,56.6916274087632,49.0958872415622,296.115142410486
11.5,3.80193510662318,-29.5,56.6776104727979,49.0841016616332,296.120466365404
12,3.80173725081645,-29.5,56.6635935368326,49.0723160817042,296.125793135801
12.5,3.80154314236844,-29.5,56.6495766008673,49.0605305017752,296.131126177167
13,3.80134903392042,-29.5,56.635559664902,49.0487449218462,296.136459218532
13.5,3.80115863831898,-29.5,56.6215427289367,49.0369593419172,296.141797611982
14,3.80096930913067,-29.5,56.6075257929713,49.0251737619882,296.147137542671
14.5,3.80078101494859,-29.5,56.593508857006,49.0133881820592,296.152478698648
15,3.80059592970968,-29.5,56.5794919210407,49.0016026021302,296.157823653517
15.5,3.80041084447078,-29.5,56.5654749850754,48.9898170222013,296.163168608387
16,3.80022845794711,-29.5,56.5514580491101,48.9780314422723,296.168515988538
16.5,3.80004716895855,-29.5,56.5374411131448,48.9662458623433,296.173864355021
17,3.79986648785458,-29.5,56.5234241771795,48.9544602824143,296.179213074257
17.5,3.79968861584251,-29.5,56.5094072412142,48.9426747024853,296.184563423598
18,3.79951074383044,-29.5,56.4953903052489,48.9308891225563,296.189913772939
18.5,3.79933486528729,-29.5,56.4813733692836,48.9191035426273,296.195264565292
19,3.79916008434201,-29.5,56.4673564333182,48.9073179626983,296.200615601567
19.5,3.79898561786592,-29.5,56.4533394973529,48.8955323827693,296.205966588891
20,3.79881364657425,-29.5,56.4393225613876,48.8837468028403,296.211317187814
20.5,3.79864167528259,-29.5,56.4253056254223,48.8719612229113,296.216667786738
21,3.79847118916076,-29.5,56.411288689457,48.8601756429824,296.222017560127
21.5,3.79830178321214,-29.5,56.3972717534917,48.8483900630534,296.2273667331
22,3.79813248532982,-29.5,56.3832548175264,48.8366044831244,296.232715799809
22.5,3.7979654313189,-29.5,56.3692378815611,48.8248189031954,296.238062660057
23,3.79779837730798,-29.5,56.3552209455958,48.8130333232664,296.243409520305
23.5,3.79763294647485,-29.5,56.3412040096305,48.8012477433374,296.24875381336
24,3.79746905680372,-29.5,56.3271870736652,48.7894621634084,296.254095668937
24.5,3.79730516713258,-29.5,56.3131701376999,48.7776765834794,296.259437524514
25,3.79714127746145,-29.5,56.2991532017346,48.7658910035504,296.264779380091
25.5,3.79697738779031,-29.5,56.2851362657692,48.7541054236214,296.270121235669
26,3.79681515653005,-29.5,56.2711193298039,48.7423198436924,296.275459129163
26.5,3.79665497709464,-29.5,56.2571023938386,48.7305342637634,296.280792120676
27,3.79649479765922,-29.5,56.2430854578733,48.7187486838344,296.286125112189
27.5,3.79633461822381,-29.5,56.229068521908,48.7069631039055,296.291458103702
28,3.79617443878839,-29.5,56.2150515859427,48.6951775239765,296.296791095215
28.5,3.79601548221027,-29.5,56.2010346499774,48.6833919440475,296.302119875249
29,3.79585851232477,-29.5,56.1870177140121,48.6716063641185,296.307441813179
29.5,3.79570154243927,-29.5,56.1730007780467,48.6598207841895,296.31276375111
30,3.79554457255377,-29.5,56.1589838420814,48.6480352042605,296.31808568904
30.5,3.79538760266826,-29.5,56.1449669061161,48.6362496243315,296.323407626971
31,3.79523151776331,-29.5,56.1309499701508,48.6244640444025,296.328725527239
31.5,3.79507735708052,-29.5,56.1169330341855,48.6126784644735,296.334034648377
32,3.79492319639773,-29.5,56.1029160982202,48.6008928845445,296.339343769515
32.5,3.79476903571493,-29.5,56.0888991622549,48.5891073046155,296.344652890653
33,3.79461487503214,-29.5,56.0748822262896,48.5773217246866,296.349962011791
33.5,3.79446133348297,-29.5,56.0608652903243,48.5655361447576,296.35526758828
34,3.79430965875828,-29.5,56.046848354359,48.5537505648286,296.360562476871
34.5,3.7941579840336,-29.5,56.0328314183937,48.5419649848996,296.365857365462
35,3.79400630930892,-29.5,56.0188144824284,48.5301794049706,296.371152254052
35.5,3.79385463458424,-29.5,56.004797546463,48.5183938250416,296.376447142643
36,3.79370336675396,-29.5,55.9907806104977,48.5066082451126,296.381739215135
36.5,3.79355391457846,-29.5,55.9767636745324,48.4948226651836,296.387018721556
37,3.79340446240296,-29.5,55.9627467385671,48.4830370852546,296.392298227978
37.5,3.79325501022745,-29.5,55.9487298026018,48.4712515053256,296.397577734399
38,3.79310555805195,-29.5,55.9347128666365,48.4594659253966,296.402857240821
38.5,3.79295634066958,-29.5,55.9206959306712,48.4476803454676,296.408134833652
39,3.79280889358016,-29.5,55.9066789947059,48.4358947655387,296.413397998394
39.5,3.79266144649075,-29.5,55.8926620587406,48.4241091856097,296.418661163136
40,3.79251399940133,-29.5,55.8786451227753,48.4123236056807,296.423924327878
40.5,3.79236655231192,-29.5,55.86462818681,48.4005380257517,296.42918749262
41,3.7922191985307,-29.5,55.8506112508447,48.3887524458227,296.434449780586
41.5,3.79207357664722,-29.5,55.8365943148793,48.3769668658937,296.439695794679
42,3.79192795476374,-29.5,55.822577378914,48.3651812859647,296.444941808771
42.5,3.79178233288027,-29.5,55.8085604429487,48.3533957060357,296.450187822864
43,3.79163671099679,-29.5,55.7945435069834,48.3416101261067,296.455433836956
43.5,3.79149108911331,-29.5,55.7805265710181,48.3298245461777,296.460679851049
44,3.79134711820092,-29.5,55.7665096350528,48.3180389662487,296.465908300663
44.5,3.79120317218311,-29.5,55.7524926990875,48.3062533863197,296.471136485426
45,3.7910592261653,-29.5,55.7384757631222,48.2944678063907,296.47636467019
45.5,3.7909152801475,-29.5,55.7244588271569,48.2826822264618,296.481592854953
46,3.79077133412969,-29.5,55.7104418911916,48.2708966465328,296.486821039717
46.5,3.79062881430814,-29.5,55.6964249552262,48.2591110666038,296.492032333873
47,3.79048641990605,-29.5,55.6824080192609,48.2473254866748,296.497242142672
47.5,3.79034402550397,-29.5,55.6683910832956,48.2355399067458,296.50245195147
48,3.79020163110189,-29.5,55.6543741473303,48.2237543268168,296.507661760269
48.5,3.7900592366998,-29.5,55.640357211365,48.2119687468878,296.512871569068
49,3.78991762684236,-29.5,55.6263402753997,48.2001831669588,296.51807139985
49.5,3.78977630877441,-29.5,55.6123233394344,48.1883975870298,296.523267436107
50,3.84332082160314,4.61631344713799,55.5983172103357,48.1766210936224,296.528455169092
50.5,3.85963249903117,14.75,55.6053181180434,48.182507526832,296.525301890662
51,3.85995593004274,14.75,55.612326586026,48.1884003167965,296.522526836605
51.5,3.86025504965079,14.75,55.6193350540087,48.194293106761,296.519754800042
52,3.8605349191576,14.75,55.6263435219913,48.2001858967255,296.516988835105
52.5,3.86079944605948,14.75,55.633351989974,48.20607868669,296.514230533301
53,3.86105065064079,14.75,55.6403604579566,48.2119714766545,296.511481296426
53.5,3.86129021703998,14.75,55.6473689259393,48.217864266619,296.508742167341
54,3.8615199066776,14.75,55.654377393922,48.2237570565835,296.506013390829
54.5,3.86174064706365,14.75,55.6613858619046,48.229649846548,296.503295666473
55,3.86195323713225,14.75,55.6683943298873,48.2355426365125,296.500589631567
55.5,3.86215860896286,14.75,55.6754027978699,48.241435426477,296.497895372942
56,3.86235746069531,14.75,55.6824112658526,48.2473282164415,296.495213002442
56.5,3.86255035573463,14.75,55.6894197338352,48.253221006406,296.492542639136
57,3.8627377836647,14.75,55.6964282018179,48.2591137963705,296.489884374406
57.5,3.86292017341574,14.75,55.7034366698005,48.265006586335,296.487238265228
58,3.86309790300173,14.75,55.7104451377832,48.2708993762995,296.484604354003
58.5,3.86327130728667,14.75,55.7174536057658,48.276792166264,296.48198264405
59,3.86343915728963,14.75,55.7244620737485,48.2826849562285,296.479378150682
59.5,3.8636058352833,14.75,55.7314705417311,48.288577746193,296.47677733508
60,3.8637687468465,14.75,55.7384790097138,48.2944705361575,296.474189339594
60.5,3.81751084378139,-14.75,55.7314789518927,48.2885848175409,296.475594372114
61,3.8173496648063,-14.75,55.7244704839101,48.2826920275764,296.476780908604
61.5,3.81720308686992,-14.75,55.7174620159274,48.2767992376119,296.47797809725
62,3.8170679715773,-14.75,55.7104535479448,48.2709064476474,296.479184927514
62.5,3.81694063453144,-14.75,55.7034450799621,48.265013657683,296.480398930062
63,3.81682113701664,-14.75,55.6964366119795,48.2591208677184,296.481620676798
63.5,3.81670712470054,-14.75,55.6894281439968,48.2532280777539,296.482848156892
64,3.81659856232654,-14.75,55.6824196760141,48.2473352877895,296.484081600456
64.5,3.81649413220099,-14.75,55.6754112080315,48.241442497825,296.485319726296
65,3.81639423782255,-14.75,55.6684027400488,48.2355497078605,296.486563116727
65.5,3.81629705560553,-14.75,55.6613942720662,48.229656917896,296.487809707856
66,3.81620252739366,-14.75,55.6543858040835,48.2237641279315,296.489059445416
66.5,3.8161109995605,-14.75,55.6473773361009,48.217871337967,296.490312767005
67,3.81602209634802,-14.75,55.6403688681182,48.2119785480025,296.491569206147
67.5,3.81593504334197,-14.75,55.6333604001356,48.206085758038,296.492827807858
68,3.8158497328167,-14.75,55.6263519321529,48.2001929680735,296.494088422448
68.5,3.81576658616093,-14.75,55.6193434641703,48.194300178109,296.495351471086
69,3.8156850636046,-14.75,55.6123349961876,48.1884073881445,296.496616274201
69.5,3.81560483198813,-14.75,55.6053265282049,48.18251459818,296.497882431199
70,3.8155258256639,-14.75,55.5983180602223,48.1766218082155,296.499149841769
70.5,3.81544847270212,-14.75,55.5913095922396,48.170729018251,296.500418837556
71,3.81537217513492,-14.75,55.584301124257,48.1648362282865,296.501688750746
71.5,3.81529703193457,-14.75,55.5772926562743,48.158943438322,296.502959576881
72,3.8152232688378,-14.75,55.5702841882917,48.1530506483575,296.504231413576
72.5,3.81514950574103,-14.75,55.563275720309,48.147157858393,296.505503250272
73,3.81507716126423,-14.75,55.5562672523264,48.1412650684285,296.506775829332
73.5,3.81500572919858,-14.75,55.5492587843437,48.135372278464,296.508048885858
74,3.81493429713293,-14.75,55.542250316361,48.1294794884995,296.509321942383
74.5,3.81486461389285,-14.75,55.5352418483784,48.123586698535,296.510595427282
75,3.81479513909676,-14.75,55.5282333803958,48.1176939085706,296.511868963238
75.5,3.81472596150303,-14.75,55.5212249124131,48.1118011186061,296.51314247385
76,3.81465815240712,-14.75,55.5142164444305,48.1059083286416,296.514415867759
76.5,3.81459034331121,-14.75,55.5072079764478,48.1000155386771,296.515689261669
77,3.81452319882635,-14.75,55.5001995084651,48.0941227487126,296.516962352814
77.5,3.81445682410012,-14.75,55.4931910404825,48.0882299587481,296.518235093296
78,3.8143904493739,-14.75,55.4861825724998,48.0823371687836,296.519507833778
78.5,3.81432500770299,-14.75,55.4791741045172,48.0764443788191,296.520779754747
79,3.81425987992795,-14.75,55.4721656365345,48.0705515888546,296.522051400018
79.5,3.81419478841417,-14.75,55.4651571685518,48.0646587988901,296.523322995649
80,3.81413075312389,-14.75,55.4581487005692,48.0587660089256,296.524593145365
80.5,3.81406671783362,-14.75,55.4511402325866,48.0528732189611,296.525863295081
81,3.81400298933984,-14.75,55.4441317646039,48.0469804289966,296.52713286669
81.5,3.81393991847339,-14.75,55.4371232966212,48.0410876390321,296.528401199109
82,3.81387684760694,-14.75,55.4301148286386,48.0351948490676,296.529669531529
82.5,3.81381429397977,-14.75,55.4231063606559,48.0293020591031,296.530936601592
83,3.81375208083873,-14.75,55.4160978926733,48.0234092691386,296.532202840677
83.5,3.81368986769769,-14.75,55.4090894246906,48.0175164791741,296.533469079761
84,3.81362833645165,-14.75,55.402080956708,48.0116236892096,296.534733254395
84.5,3.81356689124652,-14.75,55.3950724887253,48.0057308992452,296.535997168539
85,3.81350561986989,-14.75,55.3880640207427,47.9998381092807,296.537260406705
85.5,3.81344518014875,-14.75,55.38105555276,47.9939453193162,296.538520410758
86,3.8133847404276,-14.75,55.3740470847774,47.9880525293516,296.539780414811
86.5,3.81332430070645,-14.75,55.3670386167947,47.9821597393872,296.541040418864
87,3.8132638609853,-14.75,55.360030148812,47.9762669494227,296.542300422917
87.5,3.81320342126416,-14.75,55.3530216808294,47.9703741594582,296.54356042697
88,3.81314383127208,-14.75,55.3460132128467,47.9644813694937,296.544816170308
88.5,3.8130845356207,-14.75,55.3390047448641,47.9585885795292,296.546070437763
89,3.81302523996932,-14.75,55.3319962768814,47.9526957895647,296.547324705217
89.5,3.81296594431795,-14.75,55.3249878088988,47.9468029996002,296.548578972672
90,3.81290664866657,-14.75,55.3179793409161,47.9409102096357,296.549833240126
90.5,3.81284765309699,-14.75,55.3109708729335,47.9350174196712,296.551085550307
91,3.81278931749442,-14.75,55.3039624049508,47.9291246297067,296.552333555876
91.5,3.81273098189185,-14.75,55.2969539369681,47.9232318397422,296.553581561445
92,3.81267264628928,-14.75,55.2899454689855,47.9173390497777,296.554829567014
92.5,3.81261431068671,-14.75,55.2829370010028,47.9114462598132,296.556077572583
93,3.81255597508414,-14.75,55.2759285330202,47.9055534698487,296.557325578152
93.5,3.81249836400919,-14.75,55.2689200650375,47.8996606798842,296.558567688284
94,3.81244084948135,-14.75,55.2619115970549,47.8937678899197,296.559809012817
94.5,3.8123833349535,-14.75,55.2549031290722,47.8878750999552,296.561050337351
95,3.81232582042566,-14.75,55.2478946610896,47.8819823099907,296.562291661884
95.5,3.81226830589782,-14.75,55.2408861931069,47.8760895200262,296.563532986418
96,3.81221111473218,-14.75,55.2338777251243,47.8701967300617,296.564771152587
96.5,3.81215431519904,-14.75,55.2268692571416,47.8643039400972,296.566005493577
97,3.8120975156659,-14.75,55.219860789159,47.8584111501327,296.567239834567
97.5,3.81204071613276,-14.75,55.2128523211763,47.8525183601682,296.568474175557
98,3.81198391659963,-14.75,55.2058438531936,47.8466255702037,296.569708516547
98.5,3.81192713104332,-14.75,55.198835385211,47.8407327802392,296.570942698117
99,3.81187096387125,-14.75,55.1918269172283,47.8348399902747,296.572169826406
99.5,3.81181479669918,-14.75,55.1848184492457,47.8289472003103,296.573396954696
100,3.81175862952712,-14.75,55.177809981263,47.8230544103458,296.574624082985
100.5,3.81170246235505,-14.75,55.1708015132804,47.8171616203813,296.575851211275
101,3.81164629518298,-14.75,55.1637930452977,47.8112688304168,296.577078339564
101.5,3.81159046352482,-14.75,55.1567845773151,47.8053760404523,296.578301087818
102,3.81153486314992,-14.75,55.1497761093324,47.7994832504878,296.579520816736
102.5,3.81147926277502,-14.75,55.1427676413497,47.7935904605233,296.580740545653
103,3.81142366240012,-14.75,55.1357591733671,47.7876976705588,296.581960274571
103.5,3.81136806202521,-14.75,55.1287507053844,47.7818048805943,296.583180003489
104,3.81131254488878,-14.75,55.1217422374018,47.7759120906298,296.584398512289
104.5,3.81125745899373,-14.75,55.1147337694191,47.7700193006653,296.585610699909
105,3.81120237309868,-14.75,55.1077253014365,47.7641265107008,296.586822887529
105.5,3.81114728720363,-14.75,55.1007168334538,47.7582337207363,296.588035075149
106,3.81109220130858,-14.75,55.0937083654712,47.7523409307718,296.589247262769
106.5,3.81103711541353,-14.75,55.0866998974885,47.7464481408073,296.590459450389
107,3.81098237535205,-14.75,55.0796914295058,47.7405553508428,296.591666044497
107.5,3.81092776214233,-14.75,55.0726829615232,47.7346625608783,296.592870586904
108,3.81087314893261,-14.75,55.0656744935405,47.7287697709138,296.594075129312
108.5,3.81081853572289,-14.75,55.0586660255579,47.7228769809493,296.59527967172
109,3.81076392251317,-14.75,55.0516575575752,47.7169841909848,296.596484214128
109.5,3.81070944168267,-14.75,55.0446490895926,47.7110914010203,296.597686428579
110,3.81065526757022,-14.75,55.0376406216099,47.7051986110558,296.598883249235
110.5,3.81060109345778,-14.75,55.0306321536273,47.6993058210914,296.600080069891
111,3.81054691934534,-14.75,55.0236236856446,47.6934130311269,296.601276890548
111.5,3.81049274523289,-14.75,55.016615217662,47.6875202411624,296.602473711204
112,3.81043857112045,-14.75,55.0096067496793,47.6816274511979,296.60367053186
112.5,3.81038492565998,-14.75,55.0025982816966,47.6757346612334,296.604857174198
113,3.81033135826958,-14.75,54.995589813714,47.6698418712689,296.606042313425
113.5,3.81027779087918,-14.75,54.9885813457313,47.6639490813044,296.607227452653
114,3.81022422348878,-14.75,54.9815728777487,47.6580562913399,296.608412591881
114.5,3.81017065609838,-14.75,54.974564409766,47.6521635013754,296.609597731108
115,3.81011708870798,-14.75,54.9675559417834,47.6462707114109,296.610782870336
115.5,3.81006352131758,-14.75,54.9605474738007,47.6403779214464,296.611968009563
116,3.81000995392718,-14.75,54.9535390058181,47.6344851314819,296.613153148791
116.5,3.80995638653678,-14.75,54.9465305378354,47.6285923415174,296.614338288018
117,3.80990281914639,-14.75,54.9395220698527,47.6226995515529,296.615523427246
117.5,3.80984925993684,-14.75,54.9325136018701,47.6168067615884,296.616708393857
118,3.80979643533582,-14.75,54.9255051338874,47.6109139716239,296.617877860179
118.5,3.80974361073479,-14.75,54.9184966659048,47.6050211816594,296.6190473265
119,3.80969078613377,-14.75,54.9114881979221,47.5991283916949,296.620216792822
119.5,3.80963796153274,-14.75,54.9044797299395,47.5932356017304,296.621386259143
120,3.80958513693171,-14.75,54.8974712619568,47.5873428117659,296.622555725465
120.5,3.80953231233069,-14.75,54.8904627939742,47.5814500218014,296.623725191786
121,3.80947948772966,-14.75,54.8834543259915,47.5755572318369,296.624894658108
121.5,3.80942666312863,-14.75,54.8764458580089,47.5696644418724,296.62606412443
122,3.80937383852761,-14.75,54.8694373900262,47.5637716519079,296.627233590751
122.5,3.80932101392658,-14.75,54.8624289220436,47.5578788619434,296.628403057073
123,3.80926829233296,-14.75,54.8554204540609,47.551986071979,296.629570153204
123.5,3.80921615124644,-14.75,54.8484119860783,47.5460932820145,296.63072389192
124,3.80916401015992,-14.75,54.8414035180956,47.54020049205,296.631877630636
124.5,3.8091118690734,-14.75,54.834395050113,47.5343077020855,296.633031369352
125,3.80905972798688,-14.75,54.8273865821303,47.528414912121,296.634185108068
125.5,3.80900758690036,-14.75,54.8203781141477,47.5225221221565,296.635338846784
126,3.80895544581384,-14.75,54.813369646165,47.516629332192,296.6364925855
126.5,3.80890330472733,-14.75,54.8063611781823,47.5107365422275,296.637646324216
127,3.80885116364081,-14.75,54.7993527101997,47.504843752263,296.638800062932
