time,voltage,curr_density,SOC,SOC_est,temp
0,3.663945127484,-29.5,24,21.60844,279
0.5,3.66353124524412,-29.5,23.9859830640347,21.596654420071,279.007634518548
1,3.66314345400708,-29.5,23.9719661280694,21.584868840142,279.015002097324
1.5,3.66277054008944,-29.5,23.9579491921041,21.573083260213,279.022406669296
2,3.66240863529772,-29.5,23.9439322561388,21.561297680284,279.029842739902
2.5,3.66205611860937,-29.5,23.9299153201735,21.549512100355,279.037308080606
3,3.66171180907511,-29.5,23.9158983842081,21.537726520426,279.044800603468
3.5,3.66137438838153,-29.5,23.9018814482428,21.5259409404971,279.05231699686
4,3.66104322976417,-29.5,23.8878645122775,21.5141553605681,279.059855876034
4.5,3.66071841710484,-29.5,23.8738475763122,21.5023697806391,279.067418347673
5,3.66039974411097,-29.5,23.8598306403469,21.4905842007101,279.075004448855
5.5,3.66008497035993,-29.5,23.8458137043816,21.4787986207811,279.082605837249
6,3.65977572661021,-29.5,23.8317967684163,21.4670130408521,279.090229494074
6.5,3.6594693477213,-29.5,23.817779832451,21.4552274609231,279.097864812258
7,3.65916825179516,-29.5,23.8037628964857,21.4434418809941,279.105521969995
7.5,3.65887061768464,-29.5,23.7897459605204,21.4316563010651,279.113193751102
8,3.65857538887102,-29.5,23.7757290245551,21.4198707211361,279.120875697195
8.5,3.65828534974415,-29.5,23.7617120885897,21.4080851412071,279.128579921461
9,3.65799736334345,-29.5,23.7476951526244,21.3962995612782,279.136293052888
9.5,3.65771211507519,-29.5,23.7336782166591,21.3845139813492,279.144018065581
10,3.65743056918144,-29.5,23.7196612806938,21.3727284014202,279.151759252322
10.5,3.65715075421686,-29.5,23.7056443447285,21.3609428214912,279.15950801397
11,3.65687392032152,-29.5,23.6916274087632,21.3491572415622,279.16726983625
11.5,3.65659959873007,-29.5,23.6776104727979,21.3373716616332,279.175042646694
12,3.65632679720547,-29.5,23.6635935368326,21.3255860817042,279.18282209875
12.5,3.65605711967764,-29.5,23.6495766008673,21.3138005017752,279.190615147442
13,3.65578906274812,-29.5,23.635559664902,21.3020149218462,279.19841518532
13.5,3.65552257748791,-29.5,23.6215427289367,21.2902293419172,279.206222001366
14,3.65526011478492,-29.5,23.6075257929713,21.2784437619882,279.214045888523
14.5,3.65499798528468,-29.5,23.593508857006,21.2666581820592,279.221871189741
15,3.65473585578445,-29.5,23.5794919210407,21.2548726021302,279.229696490959
15.5,3.65447763828567,-29.5,23.5654749850754,21.2430870222013,279.237537876873
16,3.65422068899891,-29.5,23.5514580491101,21.2313014422723,279.245384477203
16.5,3.65396373971214,-29.5,23.5374411131448,21.2195158623433,279.253231077534
17,3.65370945469591,-29.5,23.5234241771795,21.2077302824143,279.261088079932
17.5,3.65345704528271,-29.5,23.5094072412142,21.1959447024853,279.268952405217
18,3.65320463586951,-29.5,23.4953903052489,21.1841591225563,279.276816730501
18.5,3.65295390171966,-29.5,23.4813733692836,21.1723735426273,279.284687144369
19,3.65270549495573,-29.5,23.4673564333183,21.1605879626983,279.292566016899
19.5,3.65245708819179,-29.5,23.4533394973529,21.1488023827693,279.300444889428
20,3.65220956813977,-29.5,23.4393225613876,21.1370168028403,279.308326693765
20.5,3.65196470514481,-29.5,23.4253056254223,21.1252312229113,279.316217283345
21,3.65171984214984,-29.5,23.411288689457,21.1134456429824,279.324107872925
21.5,3.65147523702373,-29.5,23.3972717534917,21.1016600630534,279.331999214416
22,3.65123352277409,-29.5,23.3832548175264,21.0898744831244,279.339898985302
22.5,3.65099180852446,-29.5,23.3692378815611,21.0780889031954,279.347798756189
23,3.65075009427482,-29.5,23.3552209455958,21.0663033232664,279.355698527076
23.5,3.65051094189338,-29.5,23.3412040096305,21.0545177433374,279.363604591406
24,3.65027203186905,-29.5,23.3271870736652,21.0427321634084,279.371511251106
24.5,3.65003312184472,-29.5,23.3131701376999,21.0309465834794,279.379417910806
25,3.64979607649491,-29.5,23.2991532017345,21.0191610035504,279.387328162863
25.5,3.64955966854015,-29.5,23.2851362657692,21.0073754236214,279.395239642881
26,3.64932326058539,-29.5,23.2711193298039,20.9955898436924,279.4031511229
26.5,3.64908814189459,-29.5,23.2571023938386,20.9838042637635,279.411064304242
27,3.64885396863169,-29.5,23.2430854578733,20.9720186838345,279.418978733178
27.5,3.6486197953688,-29.5,23.229068521908,20.9602331039055,279.426893162115
28,3.64838643841822,-29.5,23.2150515859427,20.9484475239765,279.434808103755
28.5,3.64815426293403,-29.5,23.2010346499774,20.9366619440475,279.442723787442
29,3.64792208744985,-29.5,23.1870177140121,20.9248763641185,279.450639471128
29.5,3.6476903410088,-29.5,23.1730007780468,20.9130907841895,279.458555083895
30,3.64745995105773,-29.5,23.1589838420815,20.9013052042605,279.466470472435
30.5,3.64722956110665,-29.5,23.1449669061161,20.8895196243315,279.474385860976
31,3.64699933726568,-29.5,23.1309499701508,20.8777340444025,279.482301022183
31.5,3.64677125545407,-29.5,23.1169330341855,20.8659484644735,279.490213251868
32,3.64654317364246,-29.5,23.1029160982202,20.8541628845445,279.498125481553
32.5,3.64631509183085,-29.5,23.0888991622549,20.8423773046155,279.506037711238
33,3.64608701001924,-29.5,23.0748822262896,20.8305917246866,279.513949940923
33.5,3.64585892820763,-29.5,23.0608652903243,20.8188061447576,279.521862170609
34,3.64563084639603,-29.5,23.046848354359,20.8070205648286,279.529774400294
34.5,3.64540463502584,-29.5,23.0328314183937,20.7952349848996,279.537680600726
35,3.64517909691045,-29.5,23.0188144824284,20.7834494049706,279.545584630962
35.5,3.64495355879505,-29.5,23.0047975464631,20.7716638250416,279.553488661198
36,3.64472802067966,-29.5,22.9907806104977,20.7598782451126,279.561392691434
36.5,3.64450248256427,-29.5,22.9767636745324,20.7480926651836,279.56929672167
37,3.64427694444887,-29.5,22.9627467385671,20.7363070852546,279.577200751906
37.5,3.64405220377809,-29.5,22.9487298026018,20.7245215053256,279.585099909396
38,3.64382866586826,-29.5,22.9347128666365,20.7127359253966,279.592991717476
38.5,3.64360512795842,-29.5,22.9206959306712,20.7009503454677,279.600883525555
39,3.64338159004859,-29.5,22.9066789947059,20.6891647655387,279.608775333634
39.5,3.64315805213876,-29.5,22.8926620587406,20.6773791856097,279.616667141713
40,3.64293451422892,-29.5,22.8786451227753,20.6655936056807,279.624558949793
40.5,3.64271107235588,-29.5,22.86462818681,20.6538080257517,279.632449793607
41,3.64248908246664,-29.5,22.8506112508447,20.6420224458227,279.640326058667
41.5,3.6422670925774,-29.5,22.8365943148793,20.6302368658937,279.648202323726
42,3.64204510268817,-29.5,22.822577378914,20.6184512859647,279.656078588786
42.5,3.64182311279893,-29.5,22.8085604429487,20.6066657060357,279.663954853845
43,3.64160112290969,-29.5,22.7945435069834,20.5948801261067,279.671831118905
43.5,3.64137913302045,-29.5,22.7805265710181,20.5830945461777,279.679707383964
44,3.64115798963144,-29.5,22.7665096350528,20.5713089662487,279.687570407064
44.5,3.64093716669202,-29.5,22.7524926990875,20.5595233863198,279.69542841731
45,3.64071634375261,-29.5,22.7384757631222,20.5477378063908,279.703286427556
45.5,3.6404955208132,-29.5,22.7244588271569,20.5359522264618,279.711144437803
46,3.64027469787378,-29.5,22.7104418911916,20.5241666465328,279.719002448049
46.5,3.64005387493437,-29.5,22.6964249552263,20.5123810666038,279.726860458295
47,3.63983337990937,-29.5,22.6824080192609,20.5005954866748,279.734710518176
47.5,3.6396134004739,-29.5,22.6683910832956,20.4888099067458,279.742548077463
48,3.63939342103844,-29.5,22.6543741473303,20.4770243268168,279.75038563675
48.5,3.63917344160297,-29.5,22.640357211365,20.4652387468878,279.758223196037
49,3.6389534621675,-29.5,22.6263402753997,20.4534531669588,279.766060755323
49.5,3.63873348273203,-29.5,22.6123233394344,20.4416675870298,279.77389831461
50,3.70877110794576,4.25162632402983,22.5983170947959,20.4298909964753,279.781729332594
50.5,3.73101415262304,14.75,22.6053219707537,20.4357807662294,279.776933167904
51,3.73136866452597,14.75,22.6123304387364,20.4416735561939,279.77260794025
51.5,3.73170355106076,14.75,22.619338906719,20.4475663461584,279.768281767685
52,3.73202322752789,14.75,22.6263473747017,20.4534591361229,279.763959270993
52.5,3.73233051284155,14.75,22.6333558426843,20.4593519260874,279.759643277983
53,3.73262678324806,14.75,22.640364310667,20.4652447160519,279.755336018714
53.5,3.73291311731419,14.75,22.6473727786497,20.4711375060164,279.751039213147
54,3.73319060778002,14.75,22.6543812466323,20.4770302959809,279.746754189006
54.5,3.73345959093827,14.75,22.661389714615,20.4829230859454,279.742482554097
55,3.73372100721565,14.75,22.6683981825976,20.4888158759099,279.738224944998
55.5,3.73397506979221,14.75,22.6754066505803,20.4947086658744,279.733982875156
56,3.73422305618776,14.75,22.6824151185629,20.5006014558389,279.729755272338
56.5,3.73446509079786,14.75,22.6894235865456,20.5064942458034,279.725543236302
57,3.73470156039927,14.75,22.6964320545282,20.5123870357679,279.721347149564
57.5,3.73493281009004,14.75,22.7034405225109,20.5182798257324,279.717167325102
58,3.73515915176683,14.75,22.7104489904935,20.5241726156969,279.713004020362
58.5,3.73538086804551,14.75,22.7174574584762,20.5300654056614,279.708857443771
59,3.73559778286934,14.75,22.7244659264588,20.5359581956259,279.704729641253
59.5,3.73580929519149,14.75,22.7314743944415,20.5418509855904,279.700624381908
60,3.67969896135678,-12.7871038982517,22.7384750119363,20.5477371747861,279.696524002729
60.5,3.67548891736905,-14.75,22.7314675490949,20.5418452299545,279.698724718994
61,3.67531449157149,-14.75,22.7244590811122,20.53595243999,279.70064915095
61.5,3.67515080194939,-14.75,22.7174506131296,20.5300596500255,279.702584914788
62,3.67499491533163,-14.75,22.7104421451469,20.524166860061,279.704529854138
62.5,3.67484549666911,-14.75,22.7034336771643,20.5182740700965,279.706483030684
63,3.67470114397199,-14.75,22.6964252091816,20.512381280132,279.708443038045
63.5,3.67456142362986,-14.75,22.6894167411989,20.5064884901675,279.710409555792
64,3.67442538934946,-14.75,22.6824082732163,20.500595700203,279.712381422655
64.5,3.67429314333074,-14.75,22.6753998052336,20.4947029102385,279.714358942753
65,3.6741643714597,-14.75,22.668391337251,20.488810120274,279.716341769227
65.5,3.67403728453667,-14.75,22.6613828692683,20.4829173303095,279.718327189991
66,3.67391380182141,-14.75,22.6543744012857,20.477024540345,279.720318178285
66.5,3.67379206062724,-14.75,22.647365933303,20.4711317503805,279.722311857345
67,3.67367197257122,-14.75,22.6403574653204,20.465238960416,279.724308086933
67.5,3.67355438452923,-14.75,22.6333489973377,20.4593461704515,279.726308140873
68,3.67343829259794,-14.75,22.6263405293551,20.453453380487,279.72831043684
68.5,3.67332344126196,-14.75,22.6193320613724,20.4475605905225,279.730314574846
69,3.67321037020765,-14.75,22.6123235933897,20.441667800558,279.732321290183
69.5,3.67309860006945,-14.75,22.6053151254071,20.4357750105935,279.734329803574
70,3.67298778609046,-14.75,22.5983066574245,20.4298822206291,279.736339609892
70.5,3.67287825655965,-14.75,22.5912981894418,20.4239894306646,279.738351095566
71,3.67276986900344,-14.75,22.5842897214591,20.4180966407001,279.740363963484
71.5,3.67266223501491,-14.75,22.5772812534765,20.4122038507356,279.742377689256
72,3.6725555383869,-14.75,22.5702727854938,20.4063110607711,279.744392423529
72.5,3.67244985304875,-14.75,22.5632643175112,20.4004182708066,279.746408110048
73,3.67234495761777,-14.75,22.5562558495285,20.3945254808421,279.748424408267
73.5,3.67224106189018,-14.75,22.5492473815459,20.3886326908776,279.750441424824
74,3.67213716616259,-14.75,22.5422389135632,20.3827399009131,279.752458441382
74.5,3.67203407422357,-14.75,22.5352304455805,20.3768471109486,279.754475827693
75,3.67193199254868,-14.75,22.5282219775979,20.3709543209841,279.756493678739
75.5,3.6718299108738,-14.75,22.5212135096152,20.3650615310196,279.758511529785
76,3.6717286084287,-14.75,22.5142050416326,20.3591687410551,279.760529421387
76.5,3.67162804221202,-14.75,22.5071965736499,20.3532759510906,279.762547351305
77,3.67152747599534,-14.75,22.5001881056673,20.3473831611261,279.764565281223
77.5,3.67142765838641,-14.75,22.4931796376846,20.3414903711616,279.766582861959
78,3.67132837121759,-14.75,22.486171169702,20.3355975811971,279.768600195277
78.5,3.67122908404877,-14.75,22.4791627017193,20.3297047912326,279.770617528594
79,3.67113051174072,-14.75,22.4721542337367,20.3238120012681,279.77263410141
79.5,3.6710323136632,-14.75,22.465145765754,20.3179192113036,279.774650276102
80,3.67093411558568,-14.75,22.4581372977714,20.3120264213391,279.776666450795
80.5,3.67083659741805,-14.75,22.4511288297887,20.3061336313746,279.778681451892
81,3.67073933394977,-14.75,22.444120361806,20.3002408414101,279.780696013352
81.5,3.67064207048149,-14.75,22.4371118938234,20.2943480514456,279.782710574812
82,3.67054545179909,-14.75,22.4301034258407,20.2884552614811,279.784723557597
82.5,3.67044899574838,-14.75,22.4230949578581,20.2825624715166,279.7867361422
83,3.67035253969767,-14.75,22.4160864898754,20.2766696815522,279.788748726802
83.5,3.6702566939171,-14.75,22.4090780218928,20.2707768915877,279.790759310775
84,3.670160939588,-14.75,22.4020695539101,20.2648841016232,279.792769594945
84.5,3.6700651852589,-14.75,22.3950610859275,20.2589913116587,279.794779879115
85,3.66997000786609,-14.75,22.3880526179448,20.2530985216942,279.796787744903
85.5,3.66987486679458,-14.75,22.3810441499622,20.2472057317297,279.79879545844
86,3.66977973211966,-14.75,22.3740356819795,20.2413129417652,279.800803138682
86.5,3.66968512989931,-14.75,22.3670272139968,20.2354201518007,279.80280804741
87,3.66959052767896,-14.75,22.3600187460142,20.2295273618362,279.804812956139
87.5,3.66949596493153,-14.75,22.3530102780315,20.2236345718717,279.806817614208
88,3.66940183846977,-14.75,22.3460018100489,20.2177417819072,279.808819501784
88.5,3.669307712008,-14.75,22.3389933420662,20.2118489919427,279.810821389361
89,3.66921367955896,-14.75,22.3319848740836,20.2059562019782,279.812822528406
89.5,3.66912016330795,-14.75,22.3249764061009,20.2000634120137,279.814819557473
90,3.66902664705694,-14.75,22.3179679381183,20.1941706220492,279.816816586539
90.5,3.66893313080593,-14.75,22.3109594701356,20.1882778320847,279.818813615605
91,3.66883961455493,-14.75,22.3039510021529,20.1823850421202,279.820810644671
91.5,3.66874609830392,-14.75,22.2969425341703,20.1764922521557,279.822807673738
92,3.66865278176975,-14.75,22.2899340661876,20.1705994621912,279.82480264833
92.5,3.66855993964296,-14.75,22.282925598205,20.1647066722267,279.826792742723
93,3.66846709751617,-14.75,22.2759171302223,20.1588138822622,279.828782837116
93.5,3.66837425538939,-14.75,22.2689086622397,20.1529210922977,279.830772931509
94,3.6682814132626,-14.75,22.261900194257,20.1470283023333,279.832763025902
94.5,3.66818857113581,-14.75,22.2548917262744,20.1411355123688,279.834753120295
95,3.66809596700942,-14.75,22.2478832582917,20.1352427224043,279.836740008813
95.5,3.66800366769695,-14.75,22.2408747903091,20.1293499324398,279.838722791477
96,3.66791136838447,-14.75,22.2338663223264,20.1234571424753,279.84070557414
96.5,3.66781906907199,-14.75,22.2268578543438,20.1175643525108,279.842688356803
97,3.66772676975952,-14.75,22.2198493863611,20.1116715625463,279.844671139467
97.5,3.66763447044704,-14.75,22.2128409183784,20.1057787725818,279.84665392213
98,3.66754242826097,-14.75,22.2058324503958,20.0998859826173,279.848632295878
98.5,3.66745057177242,-14.75,22.1988239824131,20.0939931926528,279.850607485493
99,3.66735871528386,-14.75,22.1918155144305,20.0881004026883,279.852582675109
99.5,3.6672668587953,-14.75,22.1848070464478,20.0822076127238,279.854557864724
100,3.66717500230675,-14.75,22.1777985784652,20.0763148227593,279.856533054339
100.5,3.66708314581819,-14.75,22.1707901104825,20.0704220327948,279.858508243955
101,3.66699155372836,-14.75,22.1637816424999,20.0645292428303,279.860477796637
101.5,3.66690006301403,-14.75,22.1567731745172,20.0586364528658,279.862445188012
102,3.66680857229971,-14.75,22.1497647065346,20.0527436629013,279.864412579387
102.5,3.66671708158538,-14.75,22.1427562385519,20.0468508729368,279.866379970762
103,3.66662559087105,-14.75,22.1357477705692,20.0409580829723,279.868347362137
103.5,3.66653410015673,-14.75,22.1287393025866,20.0350652930078,279.870314753512
104,3.66644287324677,-14.75,22.1217308346039,20.0291725030433,279.872275260079
104.5,3.66635168749379,-14.75,22.1147223666213,20.0232797130788,279.874234692526
105,3.66626050174081,-14.75,22.1077138986386,20.0173869231143,279.876194124972
105.5,3.66616931598783,-14.75,22.100705430656,20.0114941331498,279.878153557418
106,3.66607813023485,-14.75,22.0936969626733,20.0056013431854,279.880112989865
106.5,3.66598694633459,-14.75,22.0866884946907,19.9997085532209,279.88207236409
107,3.66589601658091,-14.75,22.079680026708,19.9938157632564,279.884023751765
107.5,3.66580508682723,-14.75,22.0726715587254,19.9879229732919,279.885975139441
108,3.66571415707355,-14.75,22.0656630907427,19.9820301833274,279.887926527117
108.5,3.66562322731987,-14.75,22.05865462276,19.9761373933629,279.889877914792
109,3.6655322975662,-14.75,22.0516461547774,19.9702446033984,279.891829302468
109.5,3.66544140014217,-14.75,22.0446376867947,19.9643518134339,279.893779482363
110,3.66535068673818,-14.75,22.0376292188121,19.9584590234694,279.895722787582
110.5,3.66525997333419,-14.75,22.0306207508294,19.9525662335049,279.897666092801
111,3.66516925993021,-14.75,22.0236122828468,19.9466734435404,279.899609398019
111.5,3.66507854652622,-14.75,22.0166038148641,19.9407806535759,279.901552703238
112,3.66498783312224,-14.75,22.0095953468815,19.9348878636114,279.903496008457
112.5,3.66489717338827,-14.75,22.0025868788988,19.9289950736469,279.905436946214
113,3.66480664402045,-14.75,21.9955784109162,19.9231022836824,279.907372133331
113.5,3.66471611465263,-14.75,21.9885699429335,19.9172094937179,279.909307320449
114,3.6646255852848,-14.75,21.9815614749508,19.9113167037534,279.911242507567
114.5,3.66453505591698,-14.75,21.9745530069682,19.9054239137889,279.913177694684
115,3.66444452654916,-14.75,21.9675445389855,19.8995311238244,279.915112881802
115.5,3.66435406548127,-14.75,21.9605360710029,19.8936383338599,279.917044545552
116,3.66426369355083,-14.75,21.9535276030202,19.8877455438954,279.918971610995
116.5,3.6641733216204,-14.75,21.9465191350376,19.8818527539309,279.920898676438
117,3.66408294968997,-14.75,21.9395106670549,19.8759599639664,279.922825741881
117.5,3.66399257775954,-14.75,21.9325021990723,19.8700671740019,279.924752807324
118,3.6639022058291,-14.75,21.9254937310896,19.8641743840375,279.926679872767
118.5,3.66381194554487,-14.75,21.918485263107,19.858281594073,279.928599931623
119,3.66372176743859,-14.75,21.9114767951243,19.8523888041085,279.930514833231
119.5,3.66363158933231,-14.75,21.9044683271416,19.846496014144,279.93242973484
120,3.66354141122603,-14.75,21.897459859159,19.8406032241795,279.934344636448
120.5,3.66345123311975,-14.75,21.8904513911763,19.834710434215,279.936259538057
121,3.66336105501347,-14.75,21.8834429231937,19.8288176442505,279.938174439666
121.5,3.66327087690719,-14.75,21.876434455211,19.822924854286,279.940089341274
122,3.66318069880091,-14.75,21.8694259872284,19.8170320643215,279.942004242883
122.5,3.66309052069463,-14.75,21.8624175192457,19.811139274357,279.943919144492
123,3.66300034258835,-14.75,21.8554090512631,19.8052464843925,279.9458340461
123.5,3.66291016448206,-14.75,21.8484005832804,19.799353694428,279.947748947709
124,3.66281998637578,-14.75,21.8413921152978,19.7934609044635,279.949663849317
124.5,3.66272998282078,-14.75,21.8343836473151,19.787568114499,279.95156497979
125,3.66264000758477,-14.75,21.8273751793324,19.7816753245345,279.95346387605
125.5,3.66255003234876,-14.75,21.8203667113498,19.77578253457,279.955362772311
126,3.66246005711274,-14.75,21.8133582433671,19.7698897446055,279.957261668571
126.5,3.66237008187673,-14.75,21.8063497753845,19.763996954641,279.959160564831
127,3.66228010664071,-14.75,21.7993413074018,19.7581041646765,279.961059461092
